current[mA],power[mW],voltage[V],mpd_current[mA]
1,-0.000,0.7632,-7.697e-05
2,-0.000,0.7828,-9.312e-05
3,0.025,0.7960,-0.0001072
4,0.025,0.8073,-0.0001222
5,0.025,0.8166,-0.0001363
6,-0.000,0.8249,-0.00015
7,0.025,0.8324,-0.0001648
8,-0.000,0.8394,-0.0001805
9,0.049,0.8458,-0.0001967
10,0.025,0.8518,-0.0002149
11,0.049,0.8577,-0.0002343
12,0.049,0.8630,-0.0002556
13,0.049,0.8683,-0.0002799
14,0.049,0.8733,-0.0003068
15,0.098,0.8780,-0.0003369
16,0.074,0.8826,-0.0003703
17,0.123,0.8869,-0.0004201
18,0.369,0.8907,-0.0008759
19,0.738,0.8938,-0.001792
20,1.107,0.8970,-0.002692
21,1.475,0.8999,-0.003563
22,1.820,0.9029,-0.004426
23,2.287,0.9060,-0.005279
24,2.582,0.9089,-0.00612
25,2.976,0.9120,-0.006931
26,3.320,0.9150,-0.007732
27,3.713,0.9179,-0.008506
28,4.033,0.9208,-0.009276
29,4.402,0.9237,-0.01006
30,4.771,0.9266,-0.01078
31,5.115,0.9295,-0.01152
32,5.435,0.9325,-0.01223
33,5.779,0.9353,-0.0129
34,6.099,0.9382,-0.01356
35,6.468,0.9410,-0.01422
36,6.787,0.9439,-0.01483
37,7.107,0.9466,-0.01546
38,7.451,0.9494,-0.01606
39,7.722,0.9522,-0.01666
40,8.066,0.9550,-0.01722
41,8.411,0.9577,-0.01776
42,8.681,0.9604,-0.0183
43,9.001,0.9631,-0.01885
44,9.222,0.9658,-0.01934
45,9.517,0.9685,-0.01984
46,9.837,0.9712,-0.02032
47,10.034,0.9738,-0.02028
48,10.403,0.9763,-0.02077
49,10.747,0.9787,-0.02173
50,11.239,0.9810,-0.02259
51,11.706,0.9834,-0.02352
52,12.075,0.9857,-0.02441
53,12.468,0.9880,-0.02528
54,12.911,0.9903,-0.02619
55,13.329,0.9926,-0.02707
56,13.723,0.9949,-0.02791
57,14.042,0.9972,-0.02882
58,14.485,0.9996,-0.02967
59,14.805,1.0018,-0.0305
60,15.247,1.0040,-0.03134
61,15.641,1.0063,-0.03219
62,15.985,1.0085,-0.03302
63,16.403,1.0107,-0.03387
64,16.747,1.0130,-0.03468
65,17.141,1.0152,-0.03551
66,17.534,1.0174,-0.03632
67,17.879,1.0196,-0.03716
68,18.248,1.0217,-0.03793
69,18.567,1.0239,-0.03874
70,18.985,1.0261,-0.03955
71,19.379,1.0282,-0.04037
72,19.699,1.0304,-0.04118
73,20.043,1.0325,-0.04193
74,20.387,1.0346,-0.0427
75,20.731,1.0367,-0.0435
76,21.076,1.0388,-0.04431
77,21.469,1.0408,-0.04507
78,21.789,1.0429,-0.04581
79,22.109,1.0449,-0.04661
80,22.453,1.0470,-0.04738
81,22.797,1.0491,-0.04815
82,23.166,1.0511,-0.04892
83,23.461,1.0531,-0.04964
84,23.855,1.0551,-0.05045
85,24.174,1.0571,-0.05121
86,24.543,1.0591,-0.05194
87,24.838,1.0611,-0.05271
88,25.183,1.0630,-0.05343
89,25.478,1.0651,-0.05418
90,25.798,1.0670,-0.05492
91,26.166,1.0689,-0.05563
92,26.486,1.0708,-0.05639
93,26.806,1.0728,-0.05711
94,27.126,1.0746,-0.05785
95,27.421,1.0765,-0.05858
96,27.790,1.0785,-0.05927
97,28.085,1.0803,-0.05991
98,28.404,1.0822,-0.06064
99,28.675,1.0840,-0.06137
100,29.044,1.0859,-0.06212
101,29.388,1.0878,-0.06282
102,29.634,1.0896,-0.06345
103,30.003,1.0914,-0.0642
104,30.249,1.0932,-0.06494
105,30.618,1.0951,-0.06559
106,30.913,1.0968,-0.06626
107,31.208,1.0986,-0.06696
108,31.528,1.1004,-0.06772
109,31.847,1.1022,-0.06839
110,32.167,1.1040,-0.06906
111,32.413,1.1057,-0.06974
112,32.659,1.1074,-0.07047
113,33.052,1.1092,-0.0711
114,33.298,1.1109,-0.07173
115,33.618,1.1126,-0.0724
116,33.913,1.1144,-0.0731
117,34.208,1.1161,-0.07376
118,34.454,1.1177,-0.07443
119,34.823,1.1195,-0.07504
120,35.093,1.1211,-0.07568
121,35.364,1.1228,-0.07634
122,35.635,1.1245,-0.07705
123,35.930,1.1261,-0.07768
124,36.249,1.1278,-0.07832
125,36.544,1.1295,-0.07895
126,36.766,1.1311,-0.07965
127,37.110,1.1327,-0.08027
128,37.356,1.1343,-0.08085
129,37.700,1.1359,-0.08154
130,37.946,1.1375,-0.0822
131,38.192,1.1392,-0.08282
132,38.512,1.1407,-0.0834
133,38.782,1.1423,-0.08409
134,39.127,1.1440,-0.08476
135,39.348,1.1455,-0.0853
136,39.569,1.1471,-0.08592
137,39.864,1.1486,-0.08654
138,40.184,1.1501,-0.08722
139,40.430,1.1518,-0.08774
140,40.676,1.1533,-0.0884
141,40.996,1.1548,-0.08898
142,41.242,1.1563,-0.08954
143,41.488,1.1578,-0.09013
144,41.733,1.1594,-0.09073
145,42.004,1.1609,-0.09134
146,42.324,1.1623,-0.09195
147,42.594,1.1639,-0.09255
148,42.840,1.1654,-0.09321
149,43.037,1.1668,-0.09378
150,43.357,1.1683,-0.09431
151,43.627,1.1698,-0.0949
152,43.848,1.1712,-0.09558
153,44.094,1.1727,-0.09607
154,44.365,1.1742,-0.09669
155,44.611,1.1756,-0.09727
156,44.881,1.1771,-0.09788
157,45.152,1.1785,-0.09839
158,45.422,1.1799,-0.09895
159,45.668,1.1813,-0.09957
160,45.914,1.1828,-0.1002
161,46.185,1.1842,-0.1007
162,46.381,1.1857,-0.1013
163,46.701,1.1871,-0.1017
164,46.923,1.1884,-0.1023
165,47.095,1.1898,-0.1029
166,47.414,1.1912,-0.1034
167,47.660,1.1926,-0.1039
168,47.857,1.1940,-0.1046
169,48.201,1.1954,-0.1051
170,48.398,1.1967,-0.1056
171,48.644,1.1981,-0.1062
172,48.915,1.1995,-0.1067
173,49.111,1.2008,-0.1073
174,49.333,1.2022,-0.1078
175,49.579,1.2035,-0.1083
176,49.824,1.2048,-0.1089
177,50.070,1.2062,-0.1094
178,50.292,1.2075,-0.1099
179,50.562,1.2088,-0.1104
180,50.759,1.2102,-0.1109
181,51.005,1.2114,-0.1115
182,51.300,1.2128,-0.1121
183,51.521,1.2141,-0.1126
184,51.693,1.2154,-0.113
185,51.939,1.2167,-0.1136
186,52.161,1.2180,-0.1142
187,52.382,1.2193,-0.1146
188,52.579,1.2206,-0.1152
189,52.825,1.2219,-0.1156
190,53.046,1.2231,-0.1161
191,53.292,1.2244,-0.1165
192,53.513,1.2257,-0.1171
193,53.759,1.2269,-0.1176
194,53.882,1.2283,-0.1181
195,54.153,1.2295,-0.1186
196,54.423,1.2308,-0.1191
197,54.620,1.2320,-0.1196
198,54.891,1.2333,-0.1201
199,55.063,1.2345,-0.1206
200,55.284,1.2357,-0.121
201,55.481,1.2369,-0.1216
202,55.702,1.2382,-0.1221
203,55.899,1.2394,-0.1226
204,56.145,1.2407,-0.123
205,56.415,1.2418,-0.1236
206,56.612,1.2431,-0.1241
207,56.784,1.2443,-0.1246
208,57.005,1.2455,-0.125
209,57.178,1.2467,-0.1255
210,57.424,1.2479,-0.1259
211,57.694,1.2491,-0.1264
212,57.891,1.2503,-0.1268
213,58.014,1.2515,-0.1273
214,58.284,1.2527,-0.1277
215,58.456,1.2538,-0.1282
216,58.678,1.2550,-0.1285
217,58.899,1.2562,-0.1291
218,59.047,1.2574,-0.1297
219,59.268,1.2585,-0.13
220,59.465,1.2597,-0.1305
221,59.661,1.2609,-0.1311
222,59.858,1.2620,-0.1315
223,60.080,1.2632,-0.1319
224,60.276,1.2644,-0.1323
225,60.498,1.2655,-0.1327
226,60.694,1.2667,-0.1332
227,60.891,1.2678,-0.1336
228,61.088,1.2690,-0.1341
229,61.235,1.2701,-0.1345
230,61.506,1.2712,-0.135
231,61.678,1.2723,-0.1353
232,61.924,1.2734,-0.1357
233,62.047,1.2745,-0.1362
234,62.293,1.2756,-0.1366
235,62.465,1.2768,-0.137
236,62.637,1.2779,-0.1375
237,62.834,1.2790,-0.1379
238,63.055,1.2801,-0.1382
239,63.178,1.2812,-0.1388
240,63.473,1.2823,-0.1393
241,63.645,1.2834,-0.1397
242,63.768,1.2845,-0.1401
243,63.916,1.2856,-0.1405
244,64.186,1.2867,-0.141
245,64.309,1.2878,-0.1414
246,64.555,1.2888,-0.1417
247,64.752,1.2899,-0.1422
248,64.875,1.2910,-0.1426
249,65.072,1.2921,-0.143
250,65.244,1.2932,-0.1434
251,65.490,1.2942,-0.1437
252,65.613,1.2953,-0.1442
253,65.785,1.2963,-0.1444
254,65.982,1.2974,-0.1448
255,66.154,1.2985,-0.1454
256,66.326,1.2995,-0.1457
257,66.547,1.3006,-0.146
258,66.744,1.3016,-0.1465
259,66.916,1.3027,-0.1469
260,67.088,1.3037,-0.1473
261,67.211,1.3047,-0.1476
262,67.457,1.3058,-0.1481
263,67.556,1.3068,-0.1485
264,67.752,1.3078,-0.1488
265,67.925,1.3089,-0.1492
266,68.146,1.3099,-0.1497
267,68.220,1.3109,-0.15
268,68.441,1.3119,-0.1503
269,68.564,1.3129,-0.1508
270,68.761,1.3140,-0.151
271,68.884,1.3150,-0.1514
272,69.080,1.3160,-0.1517
273,69.302,1.3170,-0.1522
274,69.474,1.3180,-0.1525
275,69.597,1.3190,-0.1528
276,69.744,1.3200,-0.1532
277,69.917,1.3210,-0.1536
278,70.064,1.3220,-0.154
279,70.285,1.3230,-0.1544
280,70.482,1.3240,-0.1547
281,70.605,1.3250,-0.1551
282,70.753,1.3259,-0.1554
283,70.949,1.3270,-0.1558
284,71.072,1.3279,-0.1562
285,71.245,1.3289,-0.1564
286,71.343,1.3299,-0.1568
287,71.564,1.3309,-0.1571
288,71.712,1.3318,-0.1575
289,71.859,1.3328,-0.1578
290,72.032,1.3338,-0.158
291,72.253,1.3348,-0.1585
292,72.376,1.3357,-0.1589
293,72.499,1.3367,-0.1593
294,72.671,1.3377,-0.1596
295,72.769,1.3386,-0.16
296,72.941,1.3396,-0.1603
297,73.163,1.3405,-0.1607
298,73.335,1.3415,-0.1609
299,73.458,1.3424,-0.1613
300,73.581,1.3434,-0.1616
301,73.778,1.3443,-0.1619
302,73.876,1.3453,-0.1622
303,74.048,1.3462,-0.1625
304,74.196,1.3471,-0.163
305,74.392,1.3481,-0.1632
306,74.515,1.3490,-0.1636
307,74.638,1.3499,-0.1638
308,74.835,1.3509,-0.1641
309,74.933,1.3518,-0.1645
310,75.056,1.3527,-0.1649
311,75.253,1.3536,-0.165
312,75.327,1.3546,-0.1654
313,75.524,1.3555,-0.1659
314,75.696,1.3564,-0.1661
315,75.794,1.3573,-0.1664
316,75.966,1.3582,-0.1667
317,76.089,1.3592,-0.167
318,76.188,1.3601,-0.1674
319,76.384,1.3610,-0.1676
320,76.557,1.3619,-0.1679
321,76.655,1.3628,-0.1682
322,76.827,1.3637,-0.1685
323,76.950,1.3646,-0.1687
324,77.098,1.3655,-0.1691
325,77.221,1.3664,-0.1693
326,77.393,1.3673,-0.1697
327,77.491,1.3682,-0.17
328,77.639,1.3691,-0.1704
329,77.762,1.3700,-0.1706
330,77.860,1.3708,-0.171
331,78.057,1.3717,-0.1713
332,78.180,1.3726,-0.1716
333,78.303,1.3735,-0.1719
334,78.499,1.3744,-0.1721
335,78.598,1.3753,-0.1725
336,78.721,1.3762,-0.1726
337,78.819,1.3770,-0.1729
338,78.991,1.3779,-0.1732
339,79.163,1.3787,-0.1735
340,79.262,1.3796,-0.1736
341,79.385,1.3805,-0.1741
342,79.508,1.3814,-0.1743
343,79.631,1.3822,-0.1745
344,79.704,1.3831,-0.1749
345,79.950,1.3839,-0.1751
346,80.024,1.3848,-0.1754
347,80.147,1.3856,-0.1757
348,80.245,1.3865,-0.1761
349,80.368,1.3873,-0.1763
350,80.467,1.3882,-0.1765
351,80.590,1.3890,-0.1769
352,80.762,1.3899,-0.177
353,80.909,1.3907,-0.1774
354,80.983,1.3916,-0.1775
355,81.106,1.3924,-0.1778
356,81.180,1.3933,-0.1781
357,81.328,1.3941,-0.1782
358,81.475,1.3949,-0.1785
359,81.573,1.3957,-0.1787
360,81.672,1.3966,-0.179
361,81.844,1.3974,-0.1793
362,81.893,1.3982,-0.1796
363,82.041,1.3990,-0.1798
364,82.213,1.3999,-0.1801
365,82.262,1.4006,-0.1805
366,82.385,1.4015,-0.1807
367,82.508,1.4023,-0.1809
368,82.606,1.4031,-0.181
369,82.705,1.4040,-0.1813
370,82.901,1.4048,-0.1815
371,82.975,1.4056,-0.1817
372,83.074,1.4064,-0.182
373,83.246,1.4072,-0.1822
374,83.295,1.4080,-0.1824
375,83.393,1.4088,-0.1826
376,83.590,1.4097,-0.1829
377,83.688,1.4104,-0.1831
378,83.762,1.4112,-0.1834
379,83.910,1.4121,-0.1836
380,83.984,1.4128,-0.1839
381,84.057,1.4136,-0.1841
382,84.229,1.4144,-0.1843
383,84.352,1.4152,-0.1846
384,84.377,1.4160,-0.1848
385,84.549,1.4168,-0.185
386,84.623,1.4176,-0.1853
387,84.746,1.4184,-0.1854
388,84.820,1.4191,-0.1858
389,84.918,1.4199,-0.1859
390,85.066,1.4207,-0.186
391,85.139,1.4215,-0.1863
392,85.238,1.4223,-0.1865
393,85.410,1.4230,-0.1868
394,85.459,1.4238,-0.1869
395,85.557,1.4246,-0.1871
396,85.680,1.4254,-0.1876
397,85.754,1.4261,-0.1876
398,85.853,1.4269,-0.1878
399,85.951,1.4277,-0.1882
400,86.074,1.4284,-0.1884
401,86.148,1.4292,-0.1885
402,86.246,1.4300,-0.1888
403,86.418,1.4307,-0.1889
404,86.467,1.4315,-0.1892
405,86.541,1.4323,-0.1894
406,86.689,1.4330,-0.1895
407,86.762,1.4338,-0.1898
408,86.812,1.4345,-0.19
409,86.885,1.4353,-0.1903
410,87.058,1.4360,-0.1904
411,87.156,1.4368,-0.1907
412,87.230,1.4375,-0.1909
413,87.353,1.4383,-0.1909
414,87.426,1.4390,-0.1912
415,87.549,1.4398,-0.1913
416,87.623,1.4405,-0.1915
417,87.722,1.4412,-0.1917
418,87.820,1.4420,-0.1918
419,87.943,1.4427,-0.1921
420,87.967,1.4435,-0.1924
421,88.115,1.4442,-0.1925
422,88.213,1.4450,-0.1927
423,88.263,1.4457,-0.1929
424,88.336,1.4464,-0.193
425,88.386,1.4471,-0.1932
426,88.509,1.4479,-0.1934
427,88.631,1.4486,-0.1936
428,88.681,1.4493,-0.1937
429,88.730,1.4500,-0.1938
430,88.877,1.4507,-0.1939
431,89.025,1.4515,-0.1941
432,89.050,1.4522,-0.1944
433,89.123,1.4529,-0.1946
434,89.197,1.4536,-0.1948
435,89.246,1.4543,-0.195
436,89.320,1.4550,-0.1952
437,89.443,1.4558,-0.1955
438,89.541,1.4565,-0.1955
439,89.541,1.4572,-0.1957
440,89.714,1.4579,-0.1958
441,89.787,1.4586,-0.1958
442,89.861,1.4593,-0.1962
443,89.935,1.4600,-0.1962
444,89.984,1.4607,-0.1965
445,90.156,1.4614,-0.1966
446,90.230,1.4621,-0.1966
447,90.205,1.4628,-0.1969
448,90.279,1.4635,-0.1969
449,90.353,1.4642,-0.1971
450,90.501,1.4649,-0.1974
451,90.550,1.4656,-0.1974
452,90.599,1.4663,-0.1977
453,90.697,1.4669,-0.1979
454,90.771,1.4677,-0.1981
455,90.845,1.4684,-0.1982
456,90.968,1.4690,-0.1983
457,91.066,1.4697,-0.1985
458,91.091,1.4704,-0.1986
459,91.165,1.4710,-0.1987
460,91.263,1.4718,-0.1989
461,91.287,1.4725,-0.1989
462,91.361,1.4731,-0.1991
463,91.484,1.4738,-0.1993
464,91.509,1.4745,-0.1994
465,91.583,1.4751,-0.1997
466,91.706,1.4758,-0.1997
467,91.706,1.4765,-0.2
468,91.730,1.4771,-0.2001
469,91.878,1.4778,-0.2003
470,91.951,1.4785,-0.2005
471,92.025,1.4791,-0.2006
472,92.074,1.4798,-0.2006
473,92.148,1.4805,-0.2007
474,92.247,1.4811,-0.2008
475,92.247,1.4818,-0.2009
476,92.370,1.4824,-0.201
477,92.394,1.4831,-0.201
478,92.493,1.4838,-0.2012
479,92.517,1.4844,-0.2013
480,92.566,1.4851,-0.2015
481,92.689,1.4857,-0.2015
482,92.738,1.4864,-0.2017
483,92.788,1.4870,-0.202
484,92.911,1.4877,-0.202
485,92.886,1.4883,-0.2022
486,92.960,1.4890,-0.2024
487,93.107,1.4896,-0.2026
488,93.058,1.4903,-0.2027
489,93.157,1.4909,-0.2026
490,93.206,1.4915,-0.2027
491,93.255,1.4922,-0.2028
492,93.329,1.4928,-0.203
493,93.378,1.4935,-0.2029
494,93.427,1.4941,-0.2031
495,93.550,1.4947,-0.2033
496,93.648,1.4954,-0.2034
497,93.599,1.4960,-0.2036
498,93.648,1.4967,-0.2036
499,93.771,1.4973,-0.2039
500,93.796,1.4979,-0.2039
