current[mA],power[mW],voltage[V],mpd_current[mA]
1,-0.000,0.7605,-7.111e-05
2,0.025,0.7812,-8.651e-05
3,-0.000,0.7952,-9.978e-05
4,0.025,0.8068,-0.0001138
5,-0.000,0.8163,-0.0001273
6,-0.000,0.8248,-0.0001402
7,-0.025,0.8326,-0.0001545
8,-0.000,0.8399,-0.0001692
9,0.025,0.8463,-0.0001852
10,0.025,0.8525,-0.0002024
11,0.025,0.8584,-0.0002212
12,0.049,0.8637,-0.0002421
13,0.074,0.8690,-0.0002667
14,0.049,0.8741,-0.0003059
15,0.270,0.8780,-0.000988
16,0.713,0.8812,-0.002295
17,1.057,0.8844,-0.003632
18,1.549,0.8876,-0.004891
19,1.967,0.8908,-0.006206
20,2.336,0.8939,-0.00747
21,2.803,0.8969,-0.00873
22,3.172,0.9000,-0.009999
23,3.541,0.9031,-0.01131
24,3.935,0.9060,-0.01257
25,4.353,0.9091,-0.01383
26,4.771,0.9122,-0.01509
27,5.140,0.9151,-0.01635
28,5.533,0.9181,-0.01758
29,5.927,0.9211,-0.01885
30,6.320,0.9240,-0.02004
31,6.714,0.9269,-0.02128
32,7.083,0.9298,-0.02253
33,7.476,0.9326,-0.02374
34,7.919,0.9355,-0.02496
35,8.263,0.9384,-0.02616
36,8.632,0.9411,-0.02736
37,9.001,0.9439,-0.02858
38,9.394,0.9467,-0.0298
39,9.788,0.9495,-0.03101
40,10.181,0.9522,-0.03219
41,10.526,0.9550,-0.0334
42,10.894,0.9577,-0.03461
43,11.239,0.9604,-0.03578
44,11.632,0.9630,-0.03694
45,12.001,0.9657,-0.03813
46,12.444,0.9684,-0.03929
47,12.714,0.9709,-0.04043
48,13.182,0.9735,-0.04162
49,13.575,0.9761,-0.04282
50,13.895,0.9787,-0.04399
51,14.239,0.9813,-0.04511
52,14.608,0.9838,-0.04626
53,14.977,0.9862,-0.04735
54,15.321,0.9888,-0.0485
55,15.690,0.9912,-0.04969
56,16.083,0.9937,-0.05073
57,16.428,0.9962,-0.05193
58,16.797,0.9987,-0.05305
59,17.141,1.0012,-0.0541
60,17.485,1.0035,-0.05524
61,17.805,1.0059,-0.05634
62,18.198,1.0083,-0.05739
63,18.494,1.0107,-0.05848
64,18.887,1.0130,-0.05961
65,19.231,1.0154,-0.06072
66,19.576,1.0177,-0.06177
67,19.944,1.0201,-0.06283
68,20.264,1.0223,-0.06392
69,20.633,1.0246,-0.06502
70,20.977,1.0269,-0.06607
71,21.248,1.0291,-0.06713
72,21.641,1.0313,-0.06824
73,22.010,1.0335,-0.06932
74,22.305,1.0357,-0.07039
75,22.625,1.0379,-0.07144
76,22.994,1.0401,-0.07251
77,23.314,1.0423,-0.07355
78,23.683,1.0445,-0.07467
79,24.002,1.0466,-0.07566
80,24.322,1.0487,-0.07667
81,24.666,1.0509,-0.07773
82,25.011,1.0530,-0.07874
83,25.330,1.0551,-0.07979
84,25.650,1.0572,-0.08081
85,25.945,1.0592,-0.08181
86,26.314,1.0613,-0.08283
87,26.584,1.0634,-0.08383
88,26.929,1.0653,-0.08479
89,27.248,1.0674,-0.08578
90,27.519,1.0694,-0.08679
91,27.912,1.0713,-0.0877
92,28.183,1.0733,-0.08869
93,28.552,1.0754,-0.08969
94,28.847,1.0773,-0.0907
95,29.167,1.0793,-0.09161
96,29.511,1.0812,-0.09262
97,29.806,1.0831,-0.09355
98,30.052,1.0851,-0.09455
99,30.347,1.0870,-0.09556
100,30.691,1.0888,-0.09652
101,31.011,1.0908,-0.09745
102,31.355,1.0927,-0.09843
103,31.626,1.0945,-0.09944
104,31.921,1.0964,-0.1004
105,32.241,1.0983,-0.1013
106,32.511,1.1001,-0.1023
107,32.880,1.1019,-0.1032
108,33.151,1.1037,-0.1041
109,33.446,1.1056,-0.1051
110,33.716,1.1074,-0.1061
111,34.036,1.1092,-0.107
112,34.331,1.1110,-0.1079
113,34.626,1.1128,-0.1088
114,34.995,1.1145,-0.1096
115,35.241,1.1162,-0.1106
116,35.487,1.1181,-0.1115
117,35.807,1.1197,-0.1123
118,36.077,1.1215,-0.1132
119,36.348,1.1233,-0.1141
120,36.569,1.1249,-0.115
121,36.913,1.1267,-0.1159
122,37.258,1.1284,-0.1168
123,37.504,1.1300,-0.1177
124,37.823,1.1318,-0.1186
125,38.069,1.1335,-0.1194
126,38.364,1.1351,-0.1203
127,38.684,1.1368,-0.1212
128,38.930,1.1384,-0.1221
129,39.176,1.1400,-0.123
130,39.496,1.1417,-0.1238
131,39.717,1.1433,-0.1247
132,40.037,1.1449,-0.1256
133,40.307,1.1465,-0.1264
134,40.553,1.1482,-0.1273
135,40.824,1.1497,-0.1281
136,41.094,1.1514,-0.1289
137,41.340,1.1529,-0.1298
138,41.586,1.1545,-0.1306
139,41.955,1.1561,-0.1314
140,42.176,1.1576,-0.1322
141,42.397,1.1591,-0.133
142,42.717,1.1607,-0.1338
143,42.939,1.1623,-0.1346
144,43.209,1.1638,-0.1354
145,43.504,1.1654,-0.1363
146,43.750,1.1668,-0.1371
147,44.021,1.1683,-0.1379
148,44.267,1.1699,-0.1388
149,44.512,1.1714,-0.1395
150,44.758,1.1729,-0.1403
151,45.103,1.1744,-0.1411
152,45.299,1.1759,-0.1419
153,45.570,1.1774,-0.1428
154,45.840,1.1788,-0.1436
155,46.086,1.1803,-0.1444
156,46.357,1.1818,-0.1451
157,46.652,1.1832,-0.1459
158,46.824,1.1846,-0.1467
159,47.045,1.1861,-0.1474
160,47.291,1.1876,-0.1482
161,47.537,1.1890,-0.1489
162,47.832,1.1904,-0.1497
163,48.078,1.1918,-0.1505
164,48.251,1.1932,-0.151
165,48.521,1.1946,-0.1519
166,48.792,1.1961,-0.1526
167,49.013,1.1975,-0.1533
168,49.259,1.1988,-0.1541
169,49.529,1.2003,-0.1549
170,49.751,1.2016,-0.1556
171,49.972,1.2030,-0.1563
172,50.267,1.2044,-0.1571
173,50.464,1.2058,-0.1578
174,50.636,1.2071,-0.1586
175,50.956,1.2085,-0.1593
176,51.152,1.2098,-0.1601
177,51.423,1.2112,-0.1608
178,51.620,1.2125,-0.1616
179,51.890,1.2139,-0.1623
180,52.136,1.2152,-0.1629
181,52.333,1.2165,-0.1636
182,52.603,1.2179,-0.1644
183,52.825,1.2192,-0.165
184,53.021,1.2206,-0.1657
185,53.292,1.2219,-0.1664
186,53.513,1.2232,-0.1672
187,53.735,1.2245,-0.1678
188,53.931,1.2258,-0.1685
189,54.128,1.2271,-0.1692
190,54.399,1.2284,-0.1699
191,54.595,1.2296,-0.1704
192,54.817,1.2309,-0.1711
193,55.038,1.2322,-0.1718
194,55.235,1.2335,-0.1726
195,55.530,1.2348,-0.1732
196,55.677,1.2360,-0.174
197,55.948,1.2373,-0.1746
198,56.145,1.2386,-0.1754
199,56.317,1.2398,-0.176
200,56.538,1.2410,-0.1766
201,56.809,1.2423,-0.1773
202,56.956,1.2435,-0.178
203,57.202,1.2447,-0.1786
204,57.350,1.2460,-0.1792
205,57.620,1.2471,-0.1799
206,57.866,1.2484,-0.1806
207,58.088,1.2496,-0.1812
208,58.235,1.2508,-0.1817
209,58.506,1.2521,-0.1824
210,58.678,1.2533,-0.1829
211,58.875,1.2545,-0.1836
212,59.120,1.2557,-0.1842
213,59.342,1.2569,-0.1848
214,59.514,1.2581,-0.1854
215,59.735,1.2593,-0.1861
216,59.981,1.2605,-0.1868
217,60.129,1.2616,-0.1874
218,60.325,1.2628,-0.188
219,60.498,1.2640,-0.1886
220,60.744,1.2651,-0.1892
221,60.989,1.2663,-0.1898
222,61.137,1.2675,-0.1906
223,61.334,1.2687,-0.1912
224,61.530,1.2698,-0.1917
225,61.752,1.2710,-0.1923
226,61.973,1.2722,-0.1928
227,62.145,1.2733,-0.1934
228,62.342,1.2744,-0.1939
229,62.539,1.2756,-0.1945
230,62.736,1.2768,-0.1951
231,62.883,1.2779,-0.1957
232,63.104,1.2791,-0.1963
233,63.301,1.2802,-0.1968
234,63.498,1.2813,-0.1974
235,63.695,1.2824,-0.198
236,63.867,1.2835,-0.1987
237,64.064,1.2847,-0.1992
238,64.236,1.2858,-0.1998
239,64.408,1.2869,-0.2004
240,64.678,1.2880,-0.2009
241,64.850,1.2891,-0.2016
242,64.998,1.2902,-0.202
243,65.170,1.2913,-0.2025
244,65.392,1.2924,-0.2031
245,65.514,1.2935,-0.2037
246,65.711,1.2945,-0.2041
247,65.908,1.2957,-0.2045
248,66.178,1.2967,-0.2051
249,66.301,1.2978,-0.2057
250,66.474,1.2990,-0.2062
251,66.670,1.3000,-0.2068
252,66.842,1.3011,-0.2073
253,67.039,1.3021,-0.208
254,67.187,1.3032,-0.2085
255,67.384,1.3043,-0.2091
256,67.580,1.3054,-0.2096
257,67.728,1.3064,-0.2102
258,67.925,1.3075,-0.2106
259,68.146,1.3086,-0.2112
260,68.269,1.3096,-0.2118
261,68.441,1.3106,-0.2122
262,68.662,1.3117,-0.2126
263,68.761,1.3127,-0.2132
264,68.982,1.3138,-0.2136
265,69.105,1.3148,-0.214
266,69.302,1.3158,-0.2146
267,69.474,1.3169,-0.2151
268,69.621,1.3179,-0.2156
269,69.794,1.3190,-0.2162
270,70.015,1.3200,-0.2166
271,70.212,1.3211,-0.2172
272,70.335,1.3220,-0.2176
273,70.507,1.3231,-0.2183
274,70.679,1.3241,-0.2186
275,70.851,1.3251,-0.2193
276,70.974,1.3261,-0.2198
277,71.195,1.3271,-0.2202
278,71.318,1.3281,-0.2207
279,71.441,1.3291,-0.2211
280,71.687,1.3301,-0.2215
281,71.810,1.3312,-0.222
282,72.007,1.3321,-0.2224
283,72.130,1.3332,-0.2229
284,72.327,1.3341,-0.2233
285,72.499,1.3351,-0.2239
286,72.622,1.3361,-0.2242
287,72.745,1.3371,-0.2247
288,72.941,1.3381,-0.2253
289,73.089,1.3391,-0.2257
290,73.286,1.3400,-0.2261
291,73.482,1.3410,-0.2266
292,73.630,1.3420,-0.2271
293,73.728,1.3430,-0.2275
294,73.901,1.3439,-0.228
295,74.073,1.3449,-0.2283
296,74.196,1.3459,-0.2289
297,74.368,1.3469,-0.2293
298,74.466,1.3478,-0.2297
299,74.688,1.3488,-0.2301
300,74.835,1.3497,-0.2307
301,75.007,1.3507,-0.2309
302,75.130,1.3516,-0.2314
303,75.204,1.3526,-0.2319
304,75.425,1.3536,-0.2322
305,75.622,1.3545,-0.2327
306,75.745,1.3555,-0.2333
307,75.868,1.3564,-0.2334
308,75.991,1.3574,-0.2339
309,76.163,1.3583,-0.2344
310,76.335,1.3592,-0.2348
311,76.507,1.3602,-0.2352
312,76.557,1.3611,-0.2358
313,76.753,1.3620,-0.236
314,76.901,1.3630,-0.2364
315,77.073,1.3639,-0.237
316,77.196,1.3648,-0.2372
317,77.319,1.3657,-0.2378
318,77.466,1.3667,-0.2382
319,77.565,1.3676,-0.2384
320,77.762,1.3685,-0.2389
321,77.835,1.3694,-0.2392
322,78.057,1.3703,-0.2396
323,78.204,1.3712,-0.2401
324,78.327,1.3721,-0.2404
325,78.450,1.3730,-0.2408
326,78.598,1.3740,-0.2413
327,78.745,1.3748,-0.2416
328,78.893,1.3757,-0.2419
329,78.967,1.3766,-0.2424
330,79.114,1.3775,-0.2427
331,79.311,1.3784,-0.2431
332,79.434,1.3793,-0.2435
333,79.532,1.3802,-0.2438
334,79.655,1.3811,-0.2442
335,79.827,1.3820,-0.2446
336,79.999,1.3829,-0.2447
337,80.073,1.3838,-0.2454
338,80.221,1.3846,-0.2457
339,80.344,1.3855,-0.246
340,80.442,1.3864,-0.2464
341,80.590,1.3873,-0.2468
342,80.737,1.3882,-0.2471
343,80.860,1.3890,-0.2474
344,81.008,1.3899,-0.2478
345,81.106,1.3908,-0.2481
346,81.278,1.3916,-0.2485
347,81.377,1.3925,-0.2489
348,81.426,1.3934,-0.2494
349,81.598,1.3942,-0.2496
350,81.746,1.3951,-0.2499
351,81.844,1.3960,-0.2505
352,81.991,1.3968,-0.2507
353,82.139,1.3977,-0.2509
354,82.311,1.3985,-0.2513
355,82.336,1.3994,-0.2516
356,82.483,1.4002,-0.2519
357,82.631,1.4011,-0.2523
358,82.729,1.4019,-0.2527
359,82.901,1.4028,-0.2529
360,83.000,1.4036,-0.2532
361,83.123,1.4045,-0.2536
362,83.221,1.4053,-0.2539
363,83.393,1.4062,-0.2542
364,83.442,1.4070,-0.2546
365,83.590,1.4078,-0.2548
366,83.688,1.4087,-0.2552
367,83.811,1.4095,-0.2555
368,83.959,1.4103,-0.2559
369,84.057,1.4112,-0.2561
370,84.156,1.4120,-0.2564
371,84.279,1.4128,-0.2568
372,84.402,1.4136,-0.257
373,84.549,1.4145,-0.2574
374,84.623,1.4153,-0.2575
375,84.795,1.4161,-0.2579
376,84.918,1.4169,-0.2582
377,84.967,1.4177,-0.2585
378,85.066,1.4185,-0.2588
379,85.238,1.4193,-0.2592
380,85.311,1.4202,-0.2593
381,85.484,1.4210,-0.2598
382,85.533,1.4218,-0.26
383,85.705,1.4226,-0.2603
384,85.779,1.4234,-0.2606
385,85.926,1.4242,-0.2609
386,85.951,1.4250,-0.2613
387,86.123,1.4258,-0.2615
388,86.172,1.4266,-0.2617
389,86.320,1.4274,-0.262
390,86.443,1.4282,-0.2624
391,86.541,1.4290,-0.2626
392,86.664,1.4298,-0.263
393,86.762,1.4306,-0.2632
394,86.885,1.4314,-0.2635
395,86.959,1.4322,-0.264
396,87.033,1.4330,-0.2642
397,87.156,1.4337,-0.2644
398,87.254,1.4345,-0.2647
399,87.377,1.4353,-0.2649
400,87.426,1.4361,-0.2652
401,87.525,1.4368,-0.2654
402,87.672,1.4377,-0.2656
403,87.722,1.4384,-0.2659
404,87.869,1.4392,-0.2661
405,87.967,1.4400,-0.2665
406,88.090,1.4407,-0.2666
407,88.189,1.4415,-0.267
408,88.238,1.4423,-0.2674
409,88.410,1.4430,-0.2676
410,88.509,1.4438,-0.2678
411,88.533,1.4446,-0.2681
412,88.631,1.4453,-0.2684
413,88.754,1.4461,-0.2686
414,88.877,1.4469,-0.2689
415,88.951,1.4476,-0.2692
416,89.123,1.4484,-0.2692
417,89.123,1.4491,-0.2694
418,89.271,1.4499,-0.2697
419,89.345,1.4507,-0.2699
420,89.443,1.4514,-0.2701
421,89.566,1.4522,-0.2705
422,89.615,1.4529,-0.2706
423,89.714,1.4537,-0.2711
424,89.787,1.4544,-0.2712
425,89.910,1.4552,-0.2717
426,89.984,1.4559,-0.2718
427,90.082,1.4567,-0.2721
428,90.181,1.4574,-0.2724
429,90.205,1.4581,-0.2724
430,90.378,1.4588,-0.2725
431,90.402,1.4596,-0.2728
432,90.525,1.4603,-0.2732
433,90.599,1.4611,-0.2732
434,90.673,1.4618,-0.2733
435,90.796,1.4625,-0.2737
436,90.894,1.4633,-0.2739
437,90.968,1.4640,-0.2743
438,91.017,1.4647,-0.2746
439,91.091,1.4654,-0.2748
440,91.238,1.4662,-0.2751
441,91.287,1.4669,-0.2754
442,91.410,1.4676,-0.2757
443,91.509,1.4683,-0.2756
444,91.583,1.4690,-0.2759
445,91.656,1.4698,-0.2761
446,91.755,1.4705,-0.276
447,91.829,1.4712,-0.2764
448,91.902,1.4719,-0.2765
449,91.951,1.4726,-0.2767
450,92.050,1.4733,-0.2769
451,92.148,1.4741,-0.2771
452,92.222,1.4748,-0.2773
453,92.296,1.4755,-0.2777
454,92.419,1.4762,-0.2778
455,92.419,1.4769,-0.2782
456,92.517,1.4776,-0.2784
457,92.591,1.4783,-0.2786
458,92.738,1.4790,-0.2788
459,92.689,1.4797,-0.2789
460,92.788,1.4804,-0.2792
461,92.861,1.4811,-0.2792
462,92.960,1.4818,-0.2794
463,93.058,1.4825,-0.2794
464,93.132,1.4832,-0.2795
465,93.181,1.4838,-0.28
466,93.255,1.4846,-0.2802
467,93.279,1.4852,-0.2805
468,93.427,1.4859,-0.2806
469,93.525,1.4866,-0.2809
470,93.575,1.4873,-0.2811
471,93.648,1.4880,-0.2813
472,93.722,1.4887,-0.2816
473,93.796,1.4893,-0.2818
474,93.821,1.4900,-0.2818
475,93.968,1.4907,-0.282
476,93.943,1.4914,-0.2822
477,94.017,1.4921,-0.2822
478,94.140,1.4928,-0.2824
479,94.189,1.4934,-0.2828
480,94.263,1.4941,-0.2828
481,94.411,1.4948,-0.283
482,94.435,1.4955,-0.2834
483,94.534,1.4961,-0.2834
484,94.558,1.4968,-0.2837
485,94.632,1.4975,-0.2838
486,94.681,1.4981,-0.284
487,94.755,1.4988,-0.2843
488,94.853,1.4994,-0.2845
489,94.829,1.5001,-0.2848
490,94.952,1.5008,-0.2847
491,94.976,1.5014,-0.2849
492,95.050,1.5021,-0.2851
493,95.124,1.5028,-0.2851
494,95.222,1.5034,-0.2853
495,95.271,1.5041,-0.2854
496,95.271,1.5048,-0.2857
497,95.394,1.5054,-0.2858
498,95.468,1.5061,-0.2859
499,95.542,1.5067,-0.2863
500,95.517,1.5074,-0.2862
