current[mA],power[mW],voltage[V],mpd_current[mA]
1,-0.025,0.7572,-7.609e-05
2,-0.000,0.7774,-9.396e-05
3,0.025,0.7917,-0.0001089
4,-0.000,0.8031,-0.0001244
5,-0.025,0.8128,-0.0001392
6,-0.049,0.8214,-0.0001533
7,-0.000,0.8291,-0.000169
8,0.025,0.8362,-0.0001845
9,0.025,0.8426,-0.0002014
10,0.025,0.8490,-0.0002197
11,-0.000,0.8548,-0.00024
12,0.074,0.8602,-0.0002618
13,0.049,0.8656,-0.000294
14,0.320,0.8699,-0.0008224
15,0.713,0.8730,-0.002028
16,1.131,0.8763,-0.003267
17,1.549,0.8795,-0.0045
18,1.992,0.8826,-0.00569
19,2.459,0.8859,-0.0069
20,2.877,0.8891,-0.008109
21,3.271,0.8922,-0.009292
22,3.689,0.8953,-0.01049
23,4.156,0.8984,-0.01167
24,4.574,0.9014,-0.01281
25,4.943,0.9045,-0.01402
26,5.410,0.9076,-0.01523
27,5.755,0.9106,-0.01635
28,6.148,0.9137,-0.01753
29,6.615,0.9167,-0.01868
30,6.984,0.9197,-0.01984
31,7.378,0.9227,-0.02101
32,7.820,0.9257,-0.02215
33,8.214,0.9285,-0.02329
34,8.607,0.9315,-0.02443
35,8.976,0.9344,-0.02556
36,9.419,0.9372,-0.02667
37,9.763,0.9401,-0.02783
38,10.181,0.9429,-0.02894
39,10.575,0.9458,-0.03006
40,10.944,0.9486,-0.03117
41,11.312,0.9512,-0.03225
42,11.706,0.9542,-0.03341
43,12.099,0.9569,-0.03451
44,12.444,0.9597,-0.03562
45,12.862,0.9624,-0.03673
46,13.206,0.9652,-0.03784
47,13.600,0.9678,-0.03891
48,14.042,0.9705,-0.04
49,14.288,0.9732,-0.04105
50,14.731,0.9758,-0.04215
51,15.100,0.9784,-0.0432
52,15.444,0.9810,-0.04431
53,15.862,0.9836,-0.04537
54,16.231,0.9862,-0.04645
55,16.575,0.9888,-0.0475
56,16.969,0.9913,-0.04859
57,17.338,0.9939,-0.04963
58,17.707,0.9965,-0.0507
59,18.051,0.9989,-0.05172
60,18.444,1.0015,-0.05275
61,18.789,1.0040,-0.05384
62,19.108,1.0064,-0.05487
63,19.502,1.0089,-0.0559
64,19.895,1.0114,-0.05694
65,20.190,1.0137,-0.05794
66,20.584,1.0162,-0.05898
67,20.904,1.0186,-0.05999
68,21.223,1.0210,-0.06102
69,21.617,1.0233,-0.0621
70,21.961,1.0257,-0.06304
71,22.330,1.0280,-0.06407
72,22.748,1.0304,-0.06508
73,23.019,1.0326,-0.06609
74,23.363,1.0350,-0.06708
75,23.732,1.0372,-0.06806
76,24.051,1.0395,-0.06908
77,24.371,1.0418,-0.07014
78,24.740,1.0440,-0.07109
79,25.084,1.0462,-0.07203
80,25.429,1.0485,-0.07303
81,25.798,1.0507,-0.07401
82,26.093,1.0528,-0.07499
83,26.437,1.0550,-0.07596
84,26.732,1.0572,-0.07686
85,27.076,1.0594,-0.07782
86,27.396,1.0616,-0.07879
87,27.691,1.0637,-0.07979
88,28.134,1.0658,-0.08075
89,28.355,1.0679,-0.08164
90,28.798,1.0700,-0.0826
91,29.044,1.0720,-0.0835
92,29.413,1.0741,-0.08449
93,29.732,1.0763,-0.08534
94,30.052,1.0782,-0.08631
95,30.347,1.0803,-0.08725
96,30.691,1.0824,-0.08822
97,30.987,1.0843,-0.08913
98,31.331,1.0863,-0.09001
99,31.626,1.0883,-0.0909
100,31.970,1.0903,-0.09183
101,32.241,1.0923,-0.09274
102,32.610,1.0943,-0.09368
103,32.856,1.0962,-0.09455
104,33.274,1.0981,-0.09546
105,33.520,1.1001,-0.0964
106,33.815,1.1020,-0.09722
107,34.134,1.1040,-0.0981
108,34.405,1.1058,-0.09901
109,34.774,1.1077,-0.09995
110,34.995,1.1096,-0.1008
111,35.315,1.1115,-0.1016
112,35.659,1.1133,-0.1025
113,35.979,1.1153,-0.1033
114,36.225,1.1171,-0.1042
115,36.520,1.1189,-0.1051
116,36.840,1.1207,-0.1059
117,37.159,1.1225,-0.1068
118,37.430,1.1244,-0.1076
119,37.749,1.1262,-0.1084
120,38.020,1.1280,-0.1093
121,38.291,1.1298,-0.1101
122,38.586,1.1316,-0.1109
123,38.905,1.1333,-0.1118
124,39.225,1.1350,-0.1126
125,39.569,1.1368,-0.1135
126,39.791,1.1386,-0.1144
127,40.086,1.1403,-0.1151
128,40.356,1.1421,-0.1159
129,40.651,1.1437,-0.1167
130,40.922,1.1455,-0.1176
131,41.217,1.1472,-0.1184
132,41.488,1.1489,-0.1191
133,41.733,1.1506,-0.12
134,42.029,1.1523,-0.1209
135,42.299,1.1539,-0.1216
136,42.619,1.1556,-0.1224
137,42.889,1.1572,-0.1232
138,43.209,1.1588,-0.1241
139,43.406,1.1605,-0.1249
140,43.725,1.1621,-0.1255
141,43.971,1.1637,-0.1263
142,44.242,1.1654,-0.1272
143,44.463,1.1669,-0.1279
144,44.832,1.1686,-0.1286
145,45.103,1.1702,-0.1294
146,45.299,1.1718,-0.1302
147,45.570,1.1733,-0.131
148,45.890,1.1750,-0.1317
149,46.111,1.1765,-0.1325
150,46.381,1.1781,-0.1332
151,46.627,1.1796,-0.1339
152,46.947,1.1811,-0.1346
153,47.144,1.1827,-0.1355
154,47.464,1.1843,-0.1362
155,47.734,1.1858,-0.1369
156,47.980,1.1873,-0.1377
157,48.226,1.1888,-0.1384
158,48.447,1.1904,-0.1393
159,48.693,1.1919,-0.1399
160,48.915,1.1933,-0.1406
161,49.185,1.1948,-0.1413
162,49.456,1.1964,-0.1421
163,49.726,1.1979,-0.1428
164,49.997,1.1993,-0.1435
165,50.218,1.2008,-0.1443
166,50.464,1.2023,-0.1449
167,50.734,1.2037,-0.1456
168,50.931,1.2052,-0.1463
169,51.202,1.2067,-0.1471
170,51.472,1.2081,-0.1477
171,51.767,1.2095,-0.1484
172,51.939,1.2109,-0.1491
173,52.210,1.2123,-0.1498
174,52.456,1.2138,-0.1504
175,52.653,1.2152,-0.1512
176,52.923,1.2166,-0.1519
177,53.120,1.2181,-0.1525
178,53.415,1.2194,-0.1532
179,53.636,1.2208,-0.1539
180,53.858,1.2222,-0.1546
181,54.153,1.2236,-0.1552
182,54.349,1.2250,-0.1559
183,54.571,1.2263,-0.1567
184,54.817,1.2277,-0.1573
185,55.038,1.2290,-0.1579
186,55.259,1.2304,-0.1586
187,55.481,1.2317,-0.1593
188,55.702,1.2331,-0.1599
189,55.948,1.2345,-0.1605
190,56.218,1.2358,-0.1612
191,56.440,1.2371,-0.1618
192,56.587,1.2385,-0.1624
193,56.809,1.2398,-0.1631
194,57.055,1.2412,-0.1638
195,57.301,1.2425,-0.1643
196,57.571,1.2438,-0.165
197,57.743,1.2451,-0.1658
198,57.940,1.2464,-0.1663
199,58.210,1.2477,-0.1669
200,58.456,1.2490,-0.1676
201,58.629,1.2503,-0.1683
202,58.924,1.2515,-0.1689
203,59.096,1.2529,-0.1694
204,59.268,1.2541,-0.1702
205,59.514,1.2554,-0.1707
206,59.735,1.2567,-0.1713
207,59.907,1.2579,-0.172
208,60.129,1.2592,-0.1724
209,60.325,1.2605,-0.1731
210,60.596,1.2617,-0.1737
211,60.719,1.2629,-0.1743
212,60.989,1.2642,-0.1748
213,61.211,1.2654,-0.1755
214,61.383,1.2667,-0.1761
215,61.629,1.2679,-0.1766
216,61.776,1.2691,-0.1771
217,62.022,1.2703,-0.1778
218,62.219,1.2716,-0.1784
219,62.440,1.2728,-0.1789
220,62.637,1.2740,-0.1796
221,62.834,1.2752,-0.1803
222,63.031,1.2764,-0.1807
223,63.301,1.2776,-0.1813
224,63.424,1.2788,-0.1819
225,63.695,1.2800,-0.1825
226,63.842,1.2812,-0.183
227,64.064,1.2824,-0.1836
228,64.260,1.2836,-0.1842
229,64.432,1.2848,-0.1847
230,64.629,1.2860,-0.1852
231,64.875,1.2871,-0.1858
232,65.023,1.2883,-0.1862
233,65.219,1.2895,-0.1868
234,65.441,1.2907,-0.1874
235,65.662,1.2918,-0.1878
236,65.859,1.2930,-0.1884
237,65.957,1.2941,-0.189
238,66.178,1.2953,-0.1895
239,66.400,1.2964,-0.1901
240,66.597,1.2976,-0.1908
241,66.744,1.2987,-0.1913
242,66.965,1.2998,-0.1918
243,67.187,1.3010,-0.1923
244,67.384,1.3021,-0.1929
245,67.580,1.3032,-0.1934
246,67.777,1.3043,-0.1941
247,67.851,1.3055,-0.1944
248,68.072,1.3066,-0.1949
249,68.293,1.3077,-0.1953
250,68.441,1.3088,-0.196
251,68.638,1.3099,-0.1964
252,68.834,1.3110,-0.1968
253,68.957,1.3121,-0.1975
254,69.154,1.3132,-0.1979
255,69.351,1.3143,-0.1983
256,69.498,1.3154,-0.199
257,69.744,1.3165,-0.1994
258,69.867,1.3176,-0.2
259,70.015,1.3187,-0.2004
260,70.261,1.3197,-0.201
261,70.408,1.3209,-0.2015
262,70.581,1.3219,-0.2021
263,70.753,1.3230,-0.2025
264,70.949,1.3241,-0.203
265,71.122,1.3252,-0.2035
266,71.294,1.3262,-0.2039
267,71.490,1.3273,-0.2045
268,71.613,1.3284,-0.205
269,71.786,1.3294,-0.2054
270,71.933,1.3304,-0.2059
271,72.204,1.3315,-0.2063
272,72.302,1.3325,-0.2068
273,72.474,1.3336,-0.2073
274,72.696,1.3346,-0.2076
275,72.818,1.3356,-0.2081
276,72.966,1.3367,-0.2086
277,73.138,1.3377,-0.2091
278,73.310,1.3388,-0.2095
279,73.482,1.3398,-0.2101
280,73.630,1.3408,-0.2104
281,73.851,1.3419,-0.211
282,73.974,1.3429,-0.2113
283,74.097,1.3439,-0.2119
284,74.294,1.3449,-0.2124
285,74.392,1.3459,-0.2129
286,74.614,1.3469,-0.2132
287,74.712,1.3479,-0.2137
288,74.958,1.3489,-0.2139
289,75.081,1.3499,-0.2144
290,75.229,1.3509,-0.2149
291,75.425,1.3519,-0.2153
292,75.573,1.3529,-0.2158
293,75.696,1.3539,-0.2163
294,75.843,1.3549,-0.2167
295,76.016,1.3559,-0.2172
296,76.188,1.3569,-0.2176
297,76.286,1.3579,-0.2181
298,76.483,1.3589,-0.2184
299,76.606,1.3599,-0.2188
300,76.778,1.3608,-0.2193
301,76.925,1.3618,-0.2197
302,77.048,1.3628,-0.2203
303,77.245,1.3637,-0.2205
304,77.343,1.3647,-0.2209
305,77.491,1.3657,-0.2214
306,77.663,1.3666,-0.2218
307,77.811,1.3676,-0.2222
308,77.983,1.3686,-0.2225
309,78.081,1.3696,-0.2229
310,78.229,1.3705,-0.2232
311,78.426,1.3714,-0.2238
312,78.549,1.3724,-0.224
313,78.647,1.3733,-0.2244
314,78.844,1.3742,-0.2249
315,78.942,1.3752,-0.2253
316,79.090,1.3761,-0.2257
317,79.213,1.3771,-0.226
318,79.360,1.3780,-0.2265
319,79.532,1.3790,-0.2271
320,79.680,1.3799,-0.2273
321,79.877,1.3808,-0.2277
322,79.999,1.3817,-0.2281
323,80.098,1.3827,-0.2285
324,80.270,1.3836,-0.2288
325,80.393,1.3845,-0.2292
326,80.516,1.3855,-0.2296
327,80.663,1.3863,-0.2298
328,80.811,1.3873,-0.2303
329,80.909,1.3882,-0.2306
330,81.057,1.3891,-0.231
331,81.205,1.3901,-0.2313
332,81.303,1.3909,-0.2318
333,81.426,1.3918,-0.2322
334,81.623,1.3928,-0.2326
335,81.647,1.3937,-0.233
336,81.844,1.3946,-0.2333
337,81.942,1.3954,-0.2337
338,82.114,1.3963,-0.2341
339,82.188,1.3972,-0.2344
340,82.360,1.3981,-0.2347
341,82.459,1.3990,-0.2351
342,82.631,1.3999,-0.2353
343,82.778,1.4007,-0.2357
344,82.926,1.4017,-0.236
345,82.975,1.4025,-0.2364
346,83.172,1.4034,-0.2367
347,83.246,1.4043,-0.2369
348,83.393,1.4052,-0.2374
349,83.516,1.4060,-0.2377
350,83.664,1.4069,-0.2381
351,83.787,1.4078,-0.2386
352,83.885,1.4087,-0.2388
353,84.008,1.4095,-0.2391
354,84.082,1.4104,-0.2395
355,84.254,1.4112,-0.2398
356,84.377,1.4121,-0.2402
357,84.525,1.4129,-0.2406
358,84.574,1.4138,-0.2409
359,84.697,1.4147,-0.2412
360,84.918,1.4155,-0.2414
361,85.016,1.4164,-0.2417
362,85.115,1.4172,-0.242
363,85.189,1.4181,-0.2424
364,85.311,1.4189,-0.2427
365,85.484,1.4198,-0.243
366,85.582,1.4206,-0.2433
367,85.656,1.4215,-0.2436
368,85.779,1.4223,-0.244
369,85.877,1.4231,-0.2444
370,86.025,1.4240,-0.2446
371,86.148,1.4248,-0.2451
372,86.246,1.4256,-0.2454
373,86.369,1.4265,-0.2456
374,86.467,1.4273,-0.2459
375,86.541,1.4281,-0.2463
376,86.664,1.4290,-0.2465
377,86.738,1.4298,-0.2469
378,86.935,1.4306,-0.2471
379,86.984,1.4314,-0.2475
380,87.082,1.4322,-0.2477
381,87.181,1.4330,-0.2478
382,87.328,1.4338,-0.2482
383,87.476,1.4346,-0.2487
384,87.525,1.4355,-0.2487
385,87.648,1.4363,-0.2491
386,87.771,1.4370,-0.2495
387,87.869,1.4379,-0.2498
388,87.967,1.4387,-0.25
389,88.140,1.4395,-0.2505
390,88.140,1.4403,-0.2508
391,88.312,1.4411,-0.251
392,88.386,1.4419,-0.2513
393,88.533,1.4427,-0.2515
394,88.607,1.4435,-0.2519
395,88.681,1.4443,-0.2519
396,88.828,1.4451,-0.2522
397,88.902,1.4458,-0.2527
398,89.025,1.4466,-0.2528
399,89.123,1.4474,-0.253
400,89.222,1.4482,-0.2533
401,89.295,1.4490,-0.2536
402,89.345,1.4498,-0.2539
403,89.492,1.4505,-0.2541
404,89.640,1.4513,-0.2543
405,89.689,1.4521,-0.2546
406,89.714,1.4529,-0.255
407,89.837,1.4537,-0.2551
408,89.959,1.4544,-0.2555
409,90.058,1.4552,-0.2557
410,90.181,1.4560,-0.2559
411,90.304,1.4567,-0.2563
412,90.304,1.4575,-0.2565
413,90.427,1.4583,-0.2567
414,90.550,1.4590,-0.2569
415,90.673,1.4598,-0.2572
416,90.746,1.4605,-0.2574
417,90.771,1.4613,-0.2578
418,90.894,1.4620,-0.2578
419,91.017,1.4628,-0.2581
420,91.017,1.4636,-0.2585
421,91.165,1.4643,-0.2587
422,91.189,1.4651,-0.2589
423,91.361,1.4658,-0.2591
424,91.435,1.4666,-0.2594
425,91.533,1.4673,-0.2596
426,91.632,1.4681,-0.2598
427,91.681,1.4688,-0.2603
428,91.804,1.4695,-0.2603
429,91.927,1.4703,-0.2607
430,92.025,1.4710,-0.2607
431,92.074,1.4718,-0.2609
432,92.124,1.4725,-0.2612
433,92.197,1.4732,-0.2614
434,92.320,1.4739,-0.2615
435,92.419,1.4747,-0.2617
436,92.493,1.4754,-0.2619
437,92.591,1.4761,-0.2623
438,92.615,1.4768,-0.2623
439,92.689,1.4776,-0.2626
440,92.763,1.4783,-0.2631
441,92.861,1.4790,-0.2632
442,92.935,1.4797,-0.2633
443,93.009,1.4805,-0.2637
444,93.132,1.4812,-0.2637
445,93.206,1.4819,-0.264
446,93.279,1.4826,-0.2642
447,93.378,1.4833,-0.2644
448,93.378,1.4840,-0.2645
449,93.501,1.4847,-0.2647
450,93.550,1.4854,-0.2648
451,93.722,1.4862,-0.2652
452,93.747,1.4869,-0.2653
453,93.747,1.4875,-0.2654
454,93.821,1.4883,-0.2657
455,93.968,1.4890,-0.2658
456,93.968,1.4897,-0.2662
457,94.116,1.4904,-0.2664
458,94.189,1.4911,-0.2665
459,94.165,1.4918,-0.2668
460,94.337,1.4925,-0.267
461,94.411,1.4932,-0.267
462,94.534,1.4938,-0.2673
463,94.534,1.4946,-0.2675
464,94.607,1.4953,-0.2675
465,94.706,1.4959,-0.2678
466,94.755,1.4967,-0.2678
467,94.804,1.4973,-0.268
468,94.903,1.4980,-0.2682
469,94.927,1.4987,-0.2685
470,95.001,1.4993,-0.2687
471,95.099,1.5001,-0.2688
472,95.148,1.5007,-0.2691
473,95.247,1.5014,-0.2692
474,95.345,1.5021,-0.2695
475,95.345,1.5028,-0.2696
476,95.517,1.5034,-0.2699
477,95.567,1.5041,-0.2699
478,95.517,1.5048,-0.2701
479,95.616,1.5054,-0.2702
480,95.714,1.5061,-0.2704
481,95.763,1.5068,-0.2705
482,95.788,1.5074,-0.2707
483,95.886,1.5081,-0.2709
484,95.935,1.5088,-0.2711
485,96.034,1.5094,-0.2712
486,96.034,1.5101,-0.2715
487,96.132,1.5108,-0.2716
488,96.181,1.5114,-0.2718
489,96.231,1.5121,-0.272
490,96.280,1.5127,-0.272
491,96.403,1.5134,-0.2722
492,96.452,1.5140,-0.2722
493,96.477,1.5147,-0.2724
494,96.575,1.5153,-0.2725
495,96.599,1.5160,-0.2726
496,96.698,1.5166,-0.2728
497,96.747,1.5173,-0.2729
498,96.845,1.5179,-0.2731
499,96.845,1.5186,-0.2732
500,96.944,1.5192,-0.2733
