current[mA],power[mW],voltage[V],mpd_current[mA]
1,-0.025,0.7560,-7.222e-05
2,0.025,0.7772,-8.777e-05
3,-0.049,0.7914,-0.0001008
4,0.025,0.8034,-0.0001153
5,0.049,0.8133,-0.0001287
6,-0.000,0.8220,-0.0001421
7,-0.000,0.8300,-0.0001563
8,-0.000,0.8373,-0.0001717
9,0.074,0.8440,-0.0001869
10,-0.000,0.8503,-0.0002046
11,0.025,0.8563,-0.0002241
12,0.049,0.8616,-0.0002793
13,0.369,0.8657,-0.001332
14,0.762,0.8692,-0.002658
15,1.205,0.8726,-0.003989
16,1.549,0.8761,-0.005302
17,1.992,0.8795,-0.006629
18,2.361,0.8828,-0.007927
19,2.828,0.8863,-0.009273
20,3.222,0.8897,-0.01057
21,3.566,0.8928,-0.01191
22,4.009,0.8962,-0.01321
23,4.377,0.8996,-0.01451
24,4.771,0.9028,-0.01576
25,5.140,0.9061,-0.01707
26,5.607,0.9093,-0.01835
27,5.976,0.9124,-0.01961
28,6.419,0.9157,-0.0209
29,6.787,0.9189,-0.02218
30,7.132,0.9220,-0.02344
31,7.550,0.9251,-0.02471
32,7.894,0.9283,-0.02597
33,8.263,0.9312,-0.02724
34,8.681,0.9343,-0.02851
35,9.050,0.9374,-0.02971
36,9.468,0.9403,-0.03094
37,9.788,0.9434,-0.03221
38,10.206,0.9463,-0.03345
39,10.575,0.9493,-0.03466
40,10.919,0.9523,-0.03592
41,11.312,0.9552,-0.03711
42,11.681,0.9581,-0.03836
43,12.026,0.9610,-0.03958
44,12.444,0.9638,-0.04075
45,12.813,0.9666,-0.04192
46,13.182,0.9695,-0.04314
47,13.575,0.9723,-0.04436
48,13.919,0.9751,-0.04552
49,14.264,0.9779,-0.04671
50,14.608,0.9805,-0.0479
51,15.001,0.9833,-0.04909
52,15.370,0.9861,-0.05027
53,15.715,0.9887,-0.05146
54,16.059,0.9915,-0.05261
55,16.477,0.9941,-0.0538
56,16.821,0.9968,-0.05488
57,17.116,0.9994,-0.05612
58,17.534,1.0021,-0.05726
59,17.879,1.0046,-0.05841
60,18.223,1.0073,-0.05963
61,18.616,1.0099,-0.06076
62,18.961,1.0124,-0.06184
63,19.280,1.0150,-0.06301
64,19.649,1.0176,-0.06417
65,19.969,1.0200,-0.06529
66,20.363,1.0225,-0.06647
67,20.707,1.0250,-0.06756
68,21.027,1.0274,-0.06862
69,21.346,1.0299,-0.06976
70,21.715,1.0323,-0.07089
71,22.035,1.0347,-0.07202
72,22.404,1.0371,-0.07307
73,22.699,1.0395,-0.07414
74,23.043,1.0419,-0.07522
75,23.387,1.0442,-0.07636
76,23.732,1.0466,-0.07738
77,24.101,1.0489,-0.07846
78,24.445,1.0512,-0.07955
79,24.715,1.0535,-0.08055
80,25.084,1.0558,-0.08169
81,25.404,1.0580,-0.08273
82,25.699,1.0603,-0.08377
83,26.093,1.0625,-0.08486
84,26.388,1.0648,-0.08588
85,26.683,1.0670,-0.08693
86,27.101,1.0692,-0.08797
87,27.371,1.0714,-0.08902
88,27.667,1.0736,-0.09007
89,27.986,1.0758,-0.09114
90,28.331,1.0779,-0.09216
91,28.626,1.0800,-0.0932
92,28.945,1.0822,-0.09419
93,29.265,1.0843,-0.09526
94,29.659,1.0864,-0.09627
95,29.954,1.0885,-0.09724
96,30.249,1.0906,-0.0983
97,30.519,1.0926,-0.0993
98,30.864,1.0947,-0.1003
99,31.159,1.0967,-0.1013
100,31.478,1.0988,-0.1023
101,31.749,1.1008,-0.1032
102,32.118,1.1028,-0.1043
103,32.339,1.1048,-0.1053
104,32.683,1.1068,-0.1062
105,33.003,1.1088,-0.1072
106,33.298,1.1108,-0.1081
107,33.618,1.1127,-0.1091
108,33.913,1.1146,-0.11
109,34.208,1.1166,-0.1109
110,34.503,1.1185,-0.1119
111,34.823,1.1204,-0.1129
112,35.143,1.1223,-0.1137
113,35.389,1.1242,-0.1147
114,35.659,1.1260,-0.1156
115,35.930,1.1280,-0.1166
116,36.274,1.1298,-0.1175
117,36.569,1.1317,-0.1185
118,36.840,1.1335,-0.1194
119,37.135,1.1354,-0.1204
120,37.454,1.1372,-0.1213
121,37.700,1.1391,-0.1222
122,37.995,1.1408,-0.1231
123,38.340,1.1427,-0.124
124,38.610,1.1444,-0.1249
125,38.881,1.1462,-0.1258
126,39.151,1.1480,-0.1268
127,39.471,1.1498,-0.1277
128,39.692,1.1515,-0.1286
129,40.037,1.1533,-0.1294
130,40.283,1.1550,-0.1303
131,40.627,1.1568,-0.1312
132,40.774,1.1584,-0.132
133,41.094,1.1602,-0.1329
134,41.389,1.1619,-0.1338
135,41.611,1.1636,-0.1346
136,41.955,1.1653,-0.1355
137,42.201,1.1670,-0.1363
138,42.471,1.1686,-0.1371
139,42.766,1.1703,-0.138
140,43.012,1.1720,-0.1388
141,43.234,1.1736,-0.1396
142,43.553,1.1753,-0.1405
143,43.824,1.1769,-0.1414
144,44.070,1.1786,-0.1423
145,44.340,1.1802,-0.1431
146,44.635,1.1818,-0.1439
147,44.857,1.1834,-0.1449
148,45.152,1.1850,-0.1456
149,45.398,1.1865,-0.1465
150,45.668,1.1882,-0.1472
151,45.890,1.1898,-0.1482
152,46.185,1.1913,-0.1489
153,46.431,1.1929,-0.1497
154,46.652,1.1945,-0.1505
155,46.898,1.1960,-0.1513
156,47.193,1.1975,-0.1521
157,47.439,1.1991,-0.1528
158,47.709,1.2006,-0.1536
159,47.955,1.2021,-0.1544
160,48.226,1.2037,-0.1551
161,48.472,1.2052,-0.1559
162,48.693,1.2067,-0.1567
163,48.890,1.2082,-0.1575
164,49.234,1.2097,-0.1581
165,49.456,1.2112,-0.1591
166,49.677,1.2126,-0.1598
167,49.923,1.2141,-0.1606
168,50.218,1.2156,-0.1614
169,50.439,1.2171,-0.1622
170,50.661,1.2185,-0.1628
171,50.931,1.2200,-0.1638
172,51.103,1.2214,-0.1645
173,51.398,1.2229,-0.1652
174,51.620,1.2243,-0.1659
175,51.866,1.2257,-0.1668
176,52.136,1.2271,-0.1675
177,52.357,1.2286,-0.1681
178,52.554,1.2300,-0.1688
179,52.800,1.2314,-0.1696
180,53.046,1.2328,-0.1704
181,53.292,1.2342,-0.1709
182,53.513,1.2356,-0.1718
183,53.759,1.2370,-0.1724
184,54.005,1.2384,-0.173
185,54.276,1.2397,-0.1737
186,54.423,1.2411,-0.1745
187,54.669,1.2424,-0.1751
188,54.940,1.2438,-0.176
189,55.112,1.2452,-0.1766
190,55.382,1.2465,-0.1773
191,55.579,1.2479,-0.1781
192,55.800,1.2492,-0.179
193,56.022,1.2506,-0.1795
194,56.194,1.2519,-0.1802
195,56.415,1.2532,-0.181
196,56.661,1.2546,-0.1816
197,56.883,1.2559,-0.1823
198,57.104,1.2572,-0.1828
199,57.325,1.2585,-0.1835
200,57.571,1.2598,-0.1842
201,57.719,1.2611,-0.1848
202,57.989,1.2624,-0.1855
203,58.186,1.2637,-0.186
204,58.432,1.2650,-0.1867
205,58.629,1.2662,-0.1873
206,58.850,1.2675,-0.1879
207,59.047,1.2688,-0.1887
208,59.243,1.2700,-0.1893
209,59.465,1.2713,-0.19
210,59.711,1.2726,-0.1908
211,59.883,1.2738,-0.1915
212,60.080,1.2751,-0.1921
213,60.325,1.2763,-0.1928
214,60.498,1.2775,-0.1934
215,60.719,1.2788,-0.194
216,60.891,1.2800,-0.1947
217,61.039,1.2813,-0.1954
218,61.334,1.2825,-0.1959
219,61.506,1.2837,-0.1964
220,61.752,1.2849,-0.1971
221,61.949,1.2862,-0.1976
222,62.096,1.2873,-0.1982
223,62.293,1.2886,-0.1988
224,62.514,1.2898,-0.1994
225,62.736,1.2910,-0.1999
226,62.981,1.2922,-0.2006
227,63.178,1.2934,-0.2012
228,63.326,1.2946,-0.2019
229,63.498,1.2958,-0.2025
230,63.744,1.2970,-0.2032
231,63.965,1.2981,-0.2039
232,64.137,1.2993,-0.2045
233,64.285,1.3005,-0.2051
234,64.482,1.3016,-0.2056
235,64.678,1.3028,-0.2062
236,64.900,1.3040,-0.2068
237,65.047,1.3052,-0.2073
238,65.318,1.3063,-0.2078
239,65.490,1.3075,-0.2084
240,65.564,1.3086,-0.2089
241,65.834,1.3097,-0.2094
242,66.006,1.3109,-0.21
243,66.252,1.3120,-0.2105
244,66.326,1.3132,-0.211
245,66.572,1.3143,-0.2117
246,66.744,1.3154,-0.2122
247,66.965,1.3166,-0.2127
248,67.138,1.3177,-0.2134
249,67.334,1.3188,-0.214
250,67.457,1.3199,-0.2146
251,67.679,1.3210,-0.2151
252,67.875,1.3221,-0.2158
253,67.998,1.3233,-0.2163
254,68.195,1.3243,-0.2168
255,68.392,1.3254,-0.2174
256,68.564,1.3266,-0.2177
257,68.736,1.3276,-0.2184
258,68.957,1.3287,-0.2189
259,69.080,1.3298,-0.2193
260,69.253,1.3309,-0.2198
261,69.498,1.3320,-0.2204
262,69.621,1.3331,-0.2209
263,69.843,1.3341,-0.2213
264,69.941,1.3352,-0.2218
265,70.212,1.3363,-0.2225
266,70.359,1.3373,-0.2228
267,70.458,1.3384,-0.2234
268,70.704,1.3395,-0.224
269,70.876,1.3405,-0.2246
270,70.974,1.3416,-0.225
271,71.171,1.3427,-0.2256
272,71.368,1.3437,-0.226
273,71.515,1.3448,-0.2267
274,71.663,1.3458,-0.2271
275,71.835,1.3469,-0.2277
276,72.056,1.3479,-0.2282
277,72.179,1.3490,-0.2286
278,72.327,1.3499,-0.2289
279,72.450,1.3510,-0.2295
280,72.696,1.3520,-0.2299
281,72.843,1.3530,-0.2302
282,73.040,1.3541,-0.2309
283,73.163,1.3551,-0.2312
284,73.310,1.3561,-0.2317
285,73.532,1.3572,-0.2322
286,73.581,1.3581,-0.2328
287,73.802,1.3592,-0.2333
288,73.950,1.3602,-0.2338
289,74.146,1.3612,-0.2342
290,74.245,1.3621,-0.2347
291,74.368,1.3632,-0.2353
292,74.638,1.3641,-0.2356
293,74.712,1.3652,-0.2362
294,74.884,1.3661,-0.2366
295,75.007,1.3671,-0.237
296,75.179,1.3681,-0.2374
297,75.401,1.3691,-0.2379
298,75.499,1.3701,-0.2381
299,75.573,1.3711,-0.2386
300,75.819,1.3721,-0.239
301,75.966,1.3730,-0.2394
302,76.089,1.3740,-0.2399
303,76.237,1.3750,-0.2404
304,76.458,1.3760,-0.2408
305,76.581,1.3769,-0.2414
306,76.680,1.3779,-0.2418
307,76.827,1.3788,-0.2422
308,77.024,1.3798,-0.2427
309,77.171,1.3808,-0.2431
310,77.270,1.3817,-0.2435
311,77.417,1.3827,-0.2441
312,77.639,1.3836,-0.2444
313,77.786,1.3845,-0.2448
314,77.860,1.3855,-0.2451
315,78.057,1.3864,-0.2455
316,78.106,1.3874,-0.2458
317,78.303,1.3884,-0.2464
318,78.450,1.3893,-0.2468
319,78.549,1.3902,-0.2471
320,78.745,1.3912,-0.2476
321,78.844,1.3921,-0.2479
322,79.040,1.3930,-0.2483
323,79.139,1.3940,-0.2488
324,79.237,1.3949,-0.2492
325,79.385,1.3958,-0.2496
326,79.532,1.3967,-0.2502
327,79.606,1.3976,-0.2506
328,79.803,1.3985,-0.2509
329,79.926,1.3995,-0.2514
330,80.049,1.4004,-0.2518
331,80.221,1.4013,-0.2519
332,80.368,1.4022,-0.2524
333,80.442,1.4031,-0.2527
334,80.565,1.4040,-0.2531
335,80.737,1.4049,-0.2534
336,80.885,1.4058,-0.254
337,81.032,1.4067,-0.2543
338,81.131,1.4076,-0.2546
339,81.254,1.4085,-0.2549
340,81.377,1.4094,-0.2554
341,81.524,1.4103,-0.2558
342,81.696,1.4112,-0.2562
343,81.770,1.4121,-0.2566
344,81.942,1.4130,-0.2569
345,82.041,1.4139,-0.2572
346,82.164,1.4147,-0.2578
347,82.336,1.4156,-0.2582
348,82.434,1.4165,-0.2584
349,82.508,1.4174,-0.2587
350,82.606,1.4183,-0.259
351,82.803,1.4191,-0.2592
352,82.951,1.4200,-0.2597
353,83.024,1.4209,-0.26
354,83.147,1.4217,-0.2603
355,83.270,1.4226,-0.2607
356,83.418,1.4234,-0.261
357,83.492,1.4243,-0.2614
358,83.639,1.4251,-0.2617
359,83.762,1.4260,-0.2621
360,83.910,1.4269,-0.2623
361,83.984,1.4277,-0.2628
362,84.106,1.4285,-0.2631
363,84.229,1.4294,-0.2634
364,84.328,1.4303,-0.2637
365,84.475,1.4311,-0.264
366,84.598,1.4319,-0.2643
367,84.746,1.4328,-0.2646
368,84.795,1.4336,-0.2648
369,84.918,1.4345,-0.2653
370,85.041,1.4353,-0.2655
371,85.213,1.4361,-0.2659
372,85.262,1.4369,-0.2663
373,85.385,1.4378,-0.2665
374,85.508,1.4386,-0.2668
375,85.557,1.4394,-0.2672
376,85.705,1.4403,-0.2675
377,85.828,1.4411,-0.2679
378,85.902,1.4419,-0.2681
379,86.074,1.4427,-0.2684
380,86.148,1.4435,-0.269
381,86.271,1.4444,-0.2689
382,86.344,1.4452,-0.2694
383,86.443,1.4460,-0.2697
384,86.590,1.4468,-0.27
385,86.639,1.4476,-0.2702
386,86.787,1.4484,-0.2706
387,86.885,1.4492,-0.2708
388,86.959,1.4500,-0.2711
389,87.131,1.4508,-0.2713
390,87.181,1.4516,-0.2717
391,87.303,1.4524,-0.2721
392,87.426,1.4532,-0.2721
393,87.451,1.4540,-0.2726
394,87.648,1.4548,-0.2729
395,87.746,1.4556,-0.2731
396,87.845,1.4564,-0.2735
397,87.918,1.4572,-0.2735
398,88.017,1.4580,-0.2741
399,88.115,1.4588,-0.2742
400,88.213,1.4596,-0.2744
401,88.336,1.4603,-0.2749
402,88.410,1.4611,-0.275
403,88.509,1.4619,-0.2753
404,88.631,1.4627,-0.2756
405,88.656,1.4634,-0.2758
406,88.730,1.4642,-0.276
407,88.877,1.4650,-0.2764
408,88.976,1.4658,-0.2766
409,89.074,1.4665,-0.2768
410,89.197,1.4673,-0.2771
411,89.222,1.4681,-0.2774
412,89.394,1.4688,-0.2777
413,89.468,1.4696,-0.2779
414,89.517,1.4704,-0.2781
415,89.591,1.4711,-0.2786
416,89.738,1.4719,-0.2786
417,89.837,1.4726,-0.2789
418,89.910,1.4734,-0.2791
419,90.009,1.4741,-0.2792
420,90.132,1.4749,-0.2795
421,90.205,1.4756,-0.2799
422,90.304,1.4764,-0.2799
423,90.378,1.4771,-0.2801
424,90.501,1.4779,-0.2805
425,90.501,1.4786,-0.2808
426,90.648,1.4794,-0.2809
427,90.771,1.4801,-0.2812
428,90.869,1.4808,-0.2815
429,90.845,1.4816,-0.2817
430,90.992,1.4823,-0.282
431,91.066,1.4830,-0.2823
432,91.165,1.4838,-0.2825
433,91.263,1.4845,-0.2827
434,91.287,1.4853,-0.2829
435,91.361,1.4860,-0.283
436,91.460,1.4867,-0.2833
437,91.607,1.4875,-0.2835
438,91.656,1.4882,-0.2836
439,91.779,1.4889,-0.2837
440,91.853,1.4896,-0.2839
441,91.902,1.4903,-0.2843
442,91.976,1.4910,-0.2845
443,92.050,1.4918,-0.2846
444,92.148,1.4925,-0.2851
445,92.222,1.4932,-0.2852
446,92.320,1.4939,-0.2855
447,92.370,1.4946,-0.2858
448,92.468,1.4953,-0.2858
449,92.542,1.4961,-0.286
450,92.566,1.4968,-0.2862
451,92.665,1.4975,-0.2862
452,92.738,1.4982,-0.2865
453,92.837,1.4988,-0.2865
454,92.911,1.4995,-0.287
455,93.009,1.5003,-0.2871
456,93.058,1.5010,-0.2872
457,93.107,1.5017,-0.2876
458,93.206,1.5024,-0.2877
459,93.230,1.5030,-0.2881
460,93.353,1.5037,-0.2882
461,93.427,1.5044,-0.2883
462,93.452,1.5051,-0.2886
463,93.550,1.5058,-0.2887
464,93.599,1.5065,-0.2888
465,93.698,1.5072,-0.2889
466,93.747,1.5079,-0.2891
467,93.796,1.5086,-0.2894
468,93.894,1.5092,-0.2895
469,93.968,1.5099,-0.2897
470,94.066,1.5106,-0.2899
471,94.116,1.5113,-0.29
472,94.140,1.5119,-0.2903
473,94.263,1.5126,-0.2904
474,94.312,1.5133,-0.2906
475,94.411,1.5140,-0.2907
476,94.460,1.5147,-0.2908
477,94.534,1.5153,-0.291
478,94.583,1.5160,-0.2913
479,94.657,1.5167,-0.2915
480,94.706,1.5173,-0.2915
481,94.780,1.5180,-0.2918
482,94.804,1.5187,-0.2919
483,94.853,1.5193,-0.2922
484,94.952,1.5200,-0.2924
485,94.976,1.5207,-0.2926
486,95.099,1.5213,-0.2928
487,95.173,1.5219,-0.2929
488,95.173,1.5226,-0.293
489,95.271,1.5233,-0.2931
490,95.370,1.5239,-0.2933
491,95.419,1.5245,-0.2933
492,95.444,1.5252,-0.2935
493,95.567,1.5258,-0.2937
494,95.517,1.5265,-0.2938
495,95.640,1.5272,-0.294
496,95.690,1.5278,-0.2942
497,95.739,1.5284,-0.2944
498,95.837,1.5291,-0.2943
499,95.813,1.5297,-0.2945
500,95.911,1.5304,-0.2946
