current[mA],power[mW],voltage[V],mpd_current[mA]
1,0.025,0.7648,-8.111e-05
2,-0.000,0.7815,-9.718e-05
3,-0.025,0.7936,-0.0001118
4,0.025,0.8042,-0.0001267
5,-0.000,0.8128,-0.0001411
6,0.025,0.8204,-0.0001553
7,0.025,0.8274,-0.00017
8,0.049,0.8339,-0.0001857
9,-0.000,0.8397,-0.0002018
10,0.025,0.8452,-0.0002201
11,0.049,0.8505,-0.0002395
12,0.025,0.8553,-0.0002604
13,0.049,0.8602,-0.0002851
14,0.098,0.8644,-0.0003716
15,0.418,0.8675,-0.001115
16,0.861,0.8700,-0.002152
17,1.328,0.8725,-0.003161
18,1.820,0.8751,-0.004164
19,2.213,0.8776,-0.00516
20,2.631,0.8802,-0.00619
21,3.123,0.8827,-0.007144
22,3.492,0.8852,-0.008149
23,3.910,0.8878,-0.009183
24,4.328,0.8902,-0.01017
25,4.771,0.8928,-0.01115
26,5.189,0.8953,-0.01215
27,5.582,0.8978,-0.01311
28,6.025,0.9003,-0.01412
29,6.443,0.9028,-0.0151
30,6.812,0.9052,-0.01609
31,7.206,0.9078,-0.01705
32,7.624,0.9102,-0.01805
33,8.042,0.9127,-0.01899
34,8.411,0.9151,-0.01995
35,8.853,0.9176,-0.02094
36,9.222,0.9200,-0.02191
37,9.616,0.9224,-0.02289
38,10.009,0.9248,-0.02385
39,10.427,0.9273,-0.02482
40,10.894,0.9297,-0.02578
41,11.190,0.9321,-0.02674
42,11.632,0.9345,-0.02772
43,11.976,0.9369,-0.02867
44,12.395,0.9392,-0.02963
45,12.788,0.9416,-0.03057
46,13.182,0.9440,-0.03156
47,13.600,0.9463,-0.03246
48,14.018,0.9486,-0.03345
49,14.337,0.9509,-0.03437
50,14.706,0.9533,-0.03529
51,15.124,0.9556,-0.03629
52,15.493,0.9579,-0.03717
53,15.911,0.9601,-0.03816
54,16.256,0.9624,-0.03909
55,16.649,0.9647,-0.04004
56,17.018,0.9670,-0.04092
57,17.387,0.9692,-0.04189
58,17.780,0.9715,-0.04284
59,18.149,0.9737,-0.04375
60,18.543,0.9759,-0.04472
61,18.985,0.9782,-0.04562
62,19.305,0.9804,-0.04655
63,19.699,0.9826,-0.04745
64,20.043,0.9848,-0.04839
65,20.412,0.9870,-0.04929
66,20.756,0.9892,-0.0502
67,21.223,0.9914,-0.05112
68,21.494,0.9936,-0.05204
69,21.814,0.9957,-0.05294
70,22.232,0.9980,-0.05384
71,22.625,1.0001,-0.05481
72,23.019,1.0023,-0.05568
73,23.412,1.0044,-0.05657
74,23.756,1.0065,-0.05745
75,24.101,1.0087,-0.05845
76,24.494,1.0108,-0.05925
77,24.838,1.0129,-0.06017
78,25.183,1.0150,-0.0611
79,25.527,1.0170,-0.06196
80,25.896,1.0192,-0.06287
81,26.289,1.0212,-0.06373
82,26.658,1.0233,-0.06464
83,26.978,1.0253,-0.0655
84,27.347,1.0274,-0.06639
85,27.642,1.0294,-0.06729
86,28.035,1.0315,-0.06817
87,28.355,1.0335,-0.06904
88,28.749,1.0355,-0.06991
89,29.117,1.0375,-0.07086
90,29.486,1.0395,-0.07161
91,29.732,1.0415,-0.07253
92,30.150,1.0435,-0.07341
93,30.519,1.0455,-0.07437
94,30.864,1.0475,-0.07524
95,31.257,1.0495,-0.07605
96,31.577,1.0515,-0.07691
97,31.847,1.0535,-0.07774
98,32.265,1.0554,-0.07858
99,32.634,1.0574,-0.07946
100,32.929,1.0593,-0.08027
101,33.274,1.0613,-0.08117
102,33.593,1.0632,-0.082
103,33.938,1.0651,-0.08286
104,34.257,1.0671,-0.0837
105,34.651,1.0690,-0.08457
106,34.946,1.0709,-0.08542
107,35.290,1.0728,-0.0862
108,35.684,1.0747,-0.08708
109,36.028,1.0766,-0.08795
110,36.348,1.0785,-0.0888
111,36.643,1.0804,-0.08953
112,37.012,1.0822,-0.0904
113,37.356,1.0841,-0.09126
114,37.676,1.0859,-0.09215
115,37.995,1.0878,-0.09284
116,38.364,1.0897,-0.09371
117,38.733,1.0915,-0.09453
118,38.955,1.0933,-0.09529
119,39.299,1.0951,-0.09614
120,39.594,1.0969,-0.09699
121,39.963,1.0987,-0.09773
122,40.283,1.1005,-0.09859
123,40.651,1.1023,-0.09933
124,40.971,1.1042,-0.1002
125,41.315,1.1060,-0.1011
126,41.611,1.1078,-0.1019
127,41.881,1.1096,-0.1026
128,42.299,1.1114,-0.1035
129,42.545,1.1131,-0.1042
130,42.840,1.1149,-0.1051
131,43.209,1.1166,-0.1058
132,43.529,1.1184,-0.1066
133,43.824,1.1201,-0.1074
134,44.094,1.1219,-0.1082
135,44.439,1.1236,-0.109
136,44.734,1.1253,-0.1098
137,45.078,1.1271,-0.1106
138,45.422,1.1288,-0.1113
139,45.742,1.1305,-0.1121
140,45.988,1.1322,-0.1128
141,46.357,1.1339,-0.1136
142,46.652,1.1356,-0.1144
143,46.972,1.1373,-0.1152
144,47.267,1.1390,-0.1159
145,47.611,1.1407,-0.1167
146,47.832,1.1424,-0.1175
147,48.201,1.1441,-0.1182
148,48.496,1.1458,-0.119
149,48.816,1.1474,-0.1197
150,49.087,1.1491,-0.1205
151,49.382,1.1508,-0.1213
152,49.701,1.1524,-0.1219
153,49.997,1.1540,-0.1228
154,50.341,1.1557,-0.1235
155,50.611,1.1573,-0.1243
156,50.857,1.1590,-0.125
157,51.226,1.1606,-0.1257
158,51.423,1.1622,-0.1265
159,51.767,1.1638,-0.1273
160,52.112,1.1655,-0.1279
161,52.407,1.1670,-0.1287
162,52.677,1.1687,-0.1294
163,52.923,1.1703,-0.1301
164,53.267,1.1718,-0.1308
165,53.562,1.1734,-0.1316
166,53.808,1.1750,-0.1323
167,54.054,1.1766,-0.1329
168,54.399,1.1782,-0.1337
169,54.694,1.1797,-0.1344
170,54.964,1.1813,-0.1351
171,55.259,1.1829,-0.1358
172,55.579,1.1844,-0.1365
173,55.825,1.1860,-0.1372
174,56.169,1.1875,-0.1379
175,56.415,1.1891,-0.1387
176,56.637,1.1906,-0.1394
177,56.956,1.1922,-0.1401
178,57.227,1.1938,-0.1408
179,57.473,1.1953,-0.1415
180,57.817,1.1968,-0.1421
181,58.063,1.1983,-0.1429
182,58.333,1.1998,-0.1435
183,58.604,1.2013,-0.1442
184,58.825,1.2028,-0.1449
185,59.145,1.2043,-0.1455
186,59.440,1.2058,-0.1462
187,59.661,1.2073,-0.1468
188,59.907,1.2087,-0.1476
189,60.153,1.2103,-0.1482
190,60.448,1.2117,-0.1488
191,60.744,1.2132,-0.1495
192,61.014,1.2147,-0.1502
193,61.285,1.2161,-0.1509
194,61.481,1.2176,-0.1516
195,61.850,1.2191,-0.1522
196,62.047,1.2205,-0.1529
197,62.391,1.2220,-0.1535
198,62.637,1.2234,-0.1541
199,62.858,1.2248,-0.1548
200,63.129,1.2263,-0.1555
201,63.400,1.2278,-0.1562
202,63.645,1.2292,-0.1568
203,63.867,1.2306,-0.1573
204,64.186,1.2321,-0.1581
205,64.408,1.2335,-0.1587
206,64.654,1.2349,-0.1594
207,64.949,1.2363,-0.1599
208,65.195,1.2377,-0.1605
209,65.441,1.2391,-0.1613
210,65.711,1.2406,-0.1619
211,65.908,1.2419,-0.1624
212,66.228,1.2433,-0.163
213,66.474,1.2448,-0.1637
214,66.695,1.2461,-0.1644
215,66.916,1.2475,-0.165
216,67.236,1.2489,-0.1655
217,67.408,1.2503,-0.1663
218,67.679,1.2517,-0.1669
219,67.974,1.2530,-0.1674
220,68.170,1.2544,-0.1682
221,68.416,1.2558,-0.1688
222,68.712,1.2572,-0.1692
223,68.957,1.2585,-0.1699
224,69.179,1.2599,-0.1705
225,69.425,1.2612,-0.171
226,69.671,1.2626,-0.1716
227,69.892,1.2640,-0.1723
228,70.162,1.2653,-0.1728
229,70.359,1.2667,-0.1734
230,70.581,1.2680,-0.1742
231,70.777,1.2694,-0.1747
232,71.097,1.2707,-0.1752
233,71.318,1.2720,-0.1759
234,71.589,1.2733,-0.1765
235,71.761,1.2746,-0.1769
236,72.056,1.2759,-0.1777
237,72.253,1.2773,-0.1782
238,72.450,1.2786,-0.1788
239,72.671,1.2799,-0.1794
240,72.941,1.2812,-0.18
241,73.187,1.2825,-0.1804
242,73.433,1.2838,-0.1811
243,73.605,1.2852,-0.1817
244,73.827,1.2864,-0.1821
245,74.097,1.2877,-0.1827
246,74.294,1.2890,-0.1833
247,74.565,1.2903,-0.1839
248,74.810,1.2916,-0.1844
249,74.958,1.2929,-0.1848
250,75.179,1.2942,-0.1855
251,75.425,1.2954,-0.186
252,75.647,1.2967,-0.1865
253,75.868,1.2980,-0.1873
254,76.114,1.2992,-0.1878
255,76.311,1.3005,-0.1882
256,76.483,1.3018,-0.1888
257,76.704,1.3030,-0.1893
258,76.901,1.3043,-0.1897
259,77.122,1.3055,-0.1904
260,77.343,1.3067,-0.1909
261,77.589,1.3080,-0.1914
262,77.762,1.3093,-0.192
263,78.032,1.3105,-0.1924
264,78.253,1.3117,-0.193
265,78.426,1.3130,-0.1935
266,78.672,1.3142,-0.1939
267,78.844,1.3155,-0.1945
268,79.114,1.3167,-0.1952
269,79.311,1.3179,-0.1956
270,79.532,1.3191,-0.1962
271,79.729,1.3203,-0.1967
272,79.926,1.3215,-0.1971
273,80.073,1.3228,-0.1977
274,80.319,1.3239,-0.1984
275,80.491,1.3252,-0.1989
276,80.737,1.3264,-0.1993
277,80.934,1.3276,-0.1999
278,81.131,1.3288,-0.2002
279,81.254,1.3300,-0.2008
280,81.524,1.3312,-0.2011
281,81.721,1.3324,-0.2017
282,81.942,1.3336,-0.2023
283,82.090,1.3348,-0.2027
284,82.360,1.3359,-0.2032
285,82.582,1.3372,-0.2036
286,82.729,1.3383,-0.2041
287,82.926,1.3395,-0.2046
288,83.147,1.3407,-0.2052
289,83.320,1.3418,-0.2056
290,83.467,1.3430,-0.2062
291,83.688,1.3442,-0.2066
292,83.959,1.3454,-0.2072
293,84.057,1.3465,-0.2076
294,84.279,1.3477,-0.2081
295,84.500,1.3489,-0.2086
296,84.672,1.3500,-0.2091
297,84.869,1.3512,-0.2096
298,85.090,1.3524,-0.21
299,85.262,1.3535,-0.2104
300,85.410,1.3547,-0.2109
301,85.557,1.3558,-0.2114
302,85.779,1.3570,-0.2118
303,85.975,1.3581,-0.2122
304,86.123,1.3592,-0.2126
305,86.344,1.3604,-0.2131
306,86.467,1.3615,-0.2136
307,86.713,1.3627,-0.2142
308,86.861,1.3638,-0.2146
309,87.033,1.3649,-0.215
310,87.230,1.3660,-0.2156
311,87.451,1.3672,-0.2159
312,87.599,1.3683,-0.2163
313,87.795,1.3694,-0.2169
314,87.967,1.3705,-0.2172
315,88.164,1.3717,-0.2178
316,88.287,1.3728,-0.2181
317,88.509,1.3739,-0.2185
318,88.631,1.3750,-0.2188
319,88.853,1.3761,-0.2192
320,88.976,1.3772,-0.2198
321,89.123,1.3783,-0.2202
322,89.320,1.3794,-0.2206
323,89.566,1.3805,-0.2212
324,89.664,1.3816,-0.2215
325,89.935,1.3827,-0.2219
326,90.033,1.3838,-0.2224
327,90.230,1.3848,-0.2228
328,90.378,1.3859,-0.2234
329,90.501,1.3870,-0.2237
330,90.697,1.3881,-0.2241
331,90.894,1.3892,-0.2245
332,91.066,1.3903,-0.2248
333,91.214,1.3913,-0.2253
334,91.410,1.3925,-0.2256
335,91.558,1.3935,-0.2261
336,91.755,1.3946,-0.2264
337,91.853,1.3957,-0.2268
338,91.927,1.3967,-0.2273
339,92.173,1.3978,-0.2278
340,92.320,1.3988,-0.2282
341,92.493,1.3999,-0.2286
342,92.640,1.4010,-0.2291
343,92.837,1.4020,-0.2295
344,92.960,1.4031,-0.2299
345,93.230,1.4042,-0.2302
346,93.304,1.4052,-0.2306
347,93.452,1.4063,-0.2308
348,93.599,1.4073,-0.2311
349,93.796,1.4083,-0.2316
350,93.943,1.4094,-0.2319
351,94.066,1.4104,-0.2325
352,94.214,1.4115,-0.2328
353,94.386,1.4126,-0.2333
354,94.558,1.4136,-0.2337
355,94.706,1.4146,-0.2341
356,94.878,1.4157,-0.2345
357,94.976,1.4167,-0.2349
358,95.148,1.4177,-0.2352
359,95.247,1.4188,-0.2357
360,95.419,1.4198,-0.2359
361,95.616,1.4209,-0.2363
362,95.665,1.4219,-0.2366
363,95.935,1.4229,-0.2368
364,96.034,1.4239,-0.2373
365,96.157,1.4249,-0.2376
366,96.329,1.4259,-0.2378
367,96.477,1.4269,-0.2383
368,96.649,1.4279,-0.2386
369,96.747,1.4290,-0.2389
370,96.870,1.4300,-0.2393
371,96.993,1.4310,-0.2398
372,97.091,1.4320,-0.2401
373,97.313,1.4330,-0.2405
374,97.460,1.4340,-0.2411
375,97.534,1.4350,-0.2413
376,97.755,1.4360,-0.2416
377,97.927,1.4370,-0.2419
378,98.026,1.4380,-0.2423
379,98.149,1.4390,-0.2425
380,98.296,1.4400,-0.2429
381,98.370,1.4409,-0.2431
382,98.542,1.4419,-0.2433
383,98.665,1.4429,-0.2438
384,98.813,1.4439,-0.2441
385,98.936,1.4449,-0.2445
386,99.083,1.4459,-0.245
387,99.206,1.4468,-0.2453
388,99.354,1.4478,-0.2457
389,99.452,1.4488,-0.2461
390,99.600,1.4498,-0.2463
391,99.698,1.4508,-0.2466
392,99.895,1.4517,-0.2469
393,100.042,1.4527,-0.2474
394,100.141,1.4537,-0.2475
395,100.264,1.4546,-0.2478
396,100.411,1.4556,-0.2482
397,100.534,1.4566,-0.2482
398,100.608,1.4575,-0.2487
399,100.780,1.4585,-0.2491
400,100.879,1.4594,-0.2493
401,100.928,1.4604,-0.2497
402,101.149,1.4613,-0.25
403,101.297,1.4623,-0.2503
404,101.321,1.4632,-0.2507
405,101.469,1.4642,-0.251
406,101.641,1.4651,-0.2513
407,101.764,1.4661,-0.2516
408,101.788,1.4670,-0.2517
409,102.010,1.4680,-0.2521
410,102.084,1.4689,-0.2524
411,102.157,1.4699,-0.2525
412,102.379,1.4708,-0.2528
413,102.453,1.4717,-0.2531
414,102.551,1.4727,-0.2536
415,102.674,1.4736,-0.2538
416,102.772,1.4745,-0.2542
417,102.895,1.4755,-0.2544
418,103.018,1.4764,-0.2548
419,103.117,1.4773,-0.2551
420,103.215,1.4783,-0.2552
421,103.362,1.4792,-0.2557
422,103.461,1.4801,-0.2557
423,103.584,1.4810,-0.2562
424,103.657,1.4820,-0.2565
425,103.830,1.4829,-0.2566
426,103.903,1.4838,-0.2569
427,104.076,1.4847,-0.2572
428,104.125,1.4856,-0.2574
429,104.248,1.4865,-0.2577
430,104.346,1.4874,-0.258
431,104.420,1.4883,-0.2582
432,104.518,1.4892,-0.2587
433,104.666,1.4901,-0.2589
434,104.789,1.4911,-0.2592
435,104.863,1.4919,-0.2594
436,105.035,1.4928,-0.2596
437,105.133,1.4938,-0.2598
438,105.231,1.4947,-0.2603
439,105.281,1.4956,-0.2603
440,105.404,1.4965,-0.2607
441,105.453,1.4973,-0.2607
442,105.576,1.4983,-0.261
443,105.723,1.4991,-0.2613
444,105.871,1.5000,-0.2616
445,105.895,1.5009,-0.2618
446,105.945,1.5018,-0.2621
447,106.117,1.5027,-0.2623
448,106.092,1.5036,-0.2626
449,106.289,1.5045,-0.263
450,106.436,1.5054,-0.2632
451,106.510,1.5063,-0.2633
452,106.535,1.5071,-0.2638
453,106.658,1.5080,-0.2638
454,106.781,1.5089,-0.2641
455,106.879,1.5097,-0.2644
456,106.928,1.5106,-0.2645
457,106.978,1.5115,-0.2646
458,107.125,1.5124,-0.2649
459,107.224,1.5132,-0.2651
460,107.297,1.5141,-0.2653
461,107.396,1.5150,-0.2656
462,107.568,1.5158,-0.2657
463,107.617,1.5167,-0.2662
464,107.715,1.5175,-0.2663
465,107.740,1.5184,-0.2665
466,107.887,1.5193,-0.2668
467,107.912,1.5201,-0.2671
468,108.010,1.5210,-0.2671
469,108.084,1.5218,-0.2673
470,108.183,1.5227,-0.2674
471,108.256,1.5235,-0.2676
472,108.355,1.5244,-0.2678
473,108.478,1.5252,-0.268
474,108.576,1.5261,-0.2681
475,108.601,1.5270,-0.2686
476,108.748,1.5278,-0.2687
477,108.748,1.5286,-0.2689
478,108.920,1.5294,-0.2693
479,108.920,1.5303,-0.2694
480,108.994,1.5311,-0.2696
481,109.142,1.5320,-0.2699
482,109.191,1.5328,-0.27
483,109.265,1.5336,-0.2702
484,109.338,1.5345,-0.2704
485,109.461,1.5353,-0.2704
486,109.511,1.5361,-0.2706
487,109.584,1.5370,-0.2707
488,109.732,1.5378,-0.271
489,109.781,1.5386,-0.2713
490,109.830,1.5395,-0.2714
491,109.879,1.5403,-0.2716
492,109.978,1.5411,-0.2719
493,110.002,1.5419,-0.272
494,110.076,1.5428,-0.2722
495,110.175,1.5436,-0.2724
496,110.273,1.5444,-0.2725
497,110.322,1.5452,-0.2729
498,110.371,1.5460,-0.2728
499,110.470,1.5468,-0.273
500,110.568,1.5477,-0.2732
